300.00	1.1501599601615E-6
300.50	9.5000001465451E-7
301.00	9.5000001465451E-7
301.50	9.5000001465451E-7
302.00	9.5000001465451E-7
302.50	9.5000001465451E-7
303.00	1.0705499562391E-6
303.50	9.5000001465451E-7
304.00	9.5000001465451E-7
304.50	9.5000001465451E-7
305.00	9.5000001465451E-7
305.50	9.5000001465451E-7
306.00	9.5000001465451E-7
306.50	9.5000001465451E-7
307.00	9.5000001465451E-7
307.50	9.5000001465451E-7
308.00	9.5000001465451E-7
308.50	9.585529596734E-7
309.00	9.5000001465451E-7
309.50	9.5000001465451E-7
310.00	9.5000001465451E-7
310.50	9.5000001465451E-7
311.00	9.5000001465451E-7
311.50	9.5000001465451E-7
312.00	9.5000001465451E-7
312.50	9.5000001465451E-7
313.00	9.5000001465451E-7
313.50	9.5000001465451E-7
314.00	1.2751099802699E-6
314.50	9.5000001465451E-7
315.00	9.5000001465451E-7
315.50	9.5000001465451E-7
316.00	9.5000001465451E-7
316.50	9.5000001465451E-7
317.00	9.5000001465451E-7
317.50	9.5000001465451E-7
318.00	9.5000001465451E-7
318.50	1.3612899465443E-6
319.00	1.0865200010812E-6
319.50	9.5000001465451E-7
320.00	9.5000001465451E-7
320.50	9.5000001465451E-7
321.00	9.5000001465451E-7
321.50	9.5000001465451E-7
322.00	9.5000001465451E-7
322.50	9.5000001465451E-7
323.00	9.5000001465451E-7
323.50	9.5000001465451E-7
324.00	9.5000001465451E-7
324.50	9.5000001465451E-7
325.00	9.5000001465451E-7
325.50	9.5000001465451E-7
326.00	9.5000001465451E-7
326.50	9.5000001465451E-7
327.00	9.5000001465451E-7
327.50	9.5460700322292E-7
328.00	9.5000001465451E-7
328.50	9.5000001465451E-7
329.00	9.5000001465451E-7
329.50	9.5000001465451E-7
330.00	9.5000001465451E-7
330.50	9.5000001465451E-7
331.00	9.5000001465451E-7
331.50	9.5000001465451E-7
332.00	9.5000001465451E-7
332.50	9.5000001465451E-7
333.00	9.5000001465451E-7
333.50	1.1060100177929E-6
334.00	9.5000001465451E-7
334.50	9.5000001465451E-7
335.00	9.5000001465451E-7
335.50	1.0879399496844E-6
336.00	1.0378399792899E-6
336.50	9.5000001465451E-7
337.00	1.0527600124988E-6
337.50	9.5000001465451E-7
338.00	9.5000001465451E-7
338.50	9.541660119794E-7
339.00	9.5000001465451E-7
339.50	1.1108800208603E-6
340.00	9.5000001465451E-7
340.50	9.5000001465451E-7
341.00	1.1542699667189E-6
341.50	9.5000001465451E-7
342.00	9.5000001465451E-7
342.50	9.5000001465451E-7
343.00	1.3098399449518E-6
343.50	9.5000001465451E-7
344.00	1.0853400453925E-6
344.50	1.0875299949475E-6
345.00	9.5000001465451E-7
345.50	9.5000001465451E-7
346.00	9.7702400125854E-7
346.50	9.5000001465451E-7
347.00	1.141930056292E-6
347.50	9.5000001465451E-7
348.00	9.5000001465451E-7
348.50	9.5000001465451E-7
349.00	9.5000001465451E-7
349.50	9.5000001465451E-7
350.00	9.5000001465451E-7
350.50	1.0520100204303E-6
351.00	9.5000001465451E-7
351.50	9.5000001465451E-7
352.00	9.5000001465451E-7
352.50	9.769280495675E-7
353.00	9.7222505246464E-7
353.50	9.5000001465451E-7
354.00	9.5000001465451E-7
354.50	9.5000001465451E-7
355.00	1.0600200539557E-6
355.50	9.5000001465451E-7
356.00	9.5000001465451E-7
356.50	9.5000001465451E-7
357.00	9.5000001465451E-7
357.50	9.5000001465451E-7
358.00	9.5000001465451E-7
358.50	9.5000001465451E-7
359.00	1.0028600172518E-6
359.50	9.5000001465451E-7
360.00	1.0371300049883E-6
360.50	9.5000001465451E-7
361.00	1.0586500138743E-6
361.50	9.5000001465451E-7
362.00	9.5000001465451E-7
362.50	9.5000001465451E-7
363.00	9.5000001465451E-7
363.50	9.5401901489822E-7
364.00	9.5000001465451E-7
364.50	9.5000001465451E-7
365.00	1.0936499847958E-6
365.50	9.5000001465451E-7
366.00	9.5000001465451E-7
366.50	9.5000001465451E-7
367.00	9.5000001465451E-7
367.50	9.5000001465451E-7
368.00	9.5000001465451E-7
368.50	9.5000001465451E-7
369.00	9.5000001465451E-7
369.50	9.5000001465451E-7
370.00	9.5000001465451E-7
370.50	9.5000001465451E-7
371.00	9.5000001465451E-7
371.50	9.5000001465451E-7
372.00	9.5000001465451E-7
372.50	9.5000001465451E-7
373.00	9.5000001465451E-7
373.50	9.5000001465451E-7
374.00	9.5000001465451E-7
374.50	9.5000001465451E-7
375.00	9.5000001465451E-7
375.50	9.5000001465451E-7
376.00	9.5000001465451E-7
376.50	9.5000001465451E-7
377.00	2.3629399947822E-6
377.50	1.0291199942003E-5
378.00	5.566309846472E-5
378.50	0.000299504987197
379.00	0.0017031700117514
379.50	0.01087830029428
380.00	0.063273496925831
380.50	0.21743899583817
381.00	0.45168900489807
381.50	0.61975502967834
382.00	0.68605798482895
382.50	0.70078200101852
383.00	0.7161939740181
383.50	0.74469101428986
384.00	0.76772797107697
384.50	0.77200502157211
385.00	0.77563697099686
385.50	0.79248297214508
386.00	0.81620198488235
386.50	0.82808399200439
387.00	0.83468800783157
387.50	0.8376299738884
388.00	0.83125597238541
388.50	0.82180297374725
389.00	0.82923501729965
389.50	0.85022097826004
390.00	0.86857098340988
390.50	0.86987501382828
391.00	0.86665099859238
391.50	0.86842101812363
392.00	0.86503100395203
392.50	0.8382819890976
393.00	0.81066101789474
393.50	0.81532400846481
394.00	0.85038501024246
394.50	0.87482398748398
395.00	0.85430997610092
395.50	0.81293702125549
396.00	0.80369699001312
396.50	0.83385497331619
397.00	0.87331002950668
397.50	0.88517200946808
398.00	0.8765059709549
398.50	0.86147201061249
399.00	0.85500597953796
399.50	0.84949201345444
400.00	0.8520969748497
400.50	0.87158697843552
401.00	0.90293401479721
401.50	0.92698097229004
402.00	0.9349730014801
402.50	0.9332759976387
403.00	0.93585598468781
403.50	0.94277799129486
404.00	0.94501101970673
404.50	0.94236099720001
405.00	0.93773102760315
405.50	0.93270200490952
406.00	0.92223000526428
406.50	0.91520500183105
407.00	0.92195200920105
407.50	0.92883598804474
408.00	0.91699802875519
408.50	0.90071398019791
409.00	0.89194601774216
409.50	0.8665189743042
410.00	0.80812799930573
410.50	0.73303002119064
411.00	0.66673398017883
411.50	0.55173397064209
412.00	0.33088999986649
412.50	0.040814500302076
413.00	0.0089188097044826
413.50	0.00058247102424502
414.00	0.00011588999768719
414.50	3.074920095969E-5
415.00	7.3664800765982E-6
415.50	1.7533100162836E-6
416.00	1.0603999953673E-6
416.50	9.5000001465451E-7
417.00	9.5000001465451E-7
417.50	9.5000001465451E-7
418.00	9.5000001465451E-7
418.50	9.5000001465451E-7
419.00	9.5000001465451E-7
419.50	9.5000001465451E-7
420.00	9.5000001465451E-7
420.50	9.5000001465451E-7
421.00	9.5000001465451E-7
421.50	9.5000001465451E-7
422.00	9.5000001465451E-7
422.50	9.5000001465451E-7
423.00	9.5000001465451E-7
423.50	9.5000001465451E-7
424.00	9.5000001465451E-7
424.50	9.5000001465451E-7
425.00	9.5000001465451E-7
425.50	9.5000001465451E-7
426.00	9.5000001465451E-7
426.50	9.5000001465451E-7
427.00	9.5000001465451E-7
427.50	9.5000001465451E-7
428.00	9.5000001465451E-7
428.50	9.5000001465451E-7
429.00	9.5000001465451E-7
429.50	9.5000001465451E-7
430.00	9.5000001465451E-7
430.50	9.5000001465451E-7
431.00	9.5000001465451E-7
431.50	9.5000001465451E-7
432.00	9.5000001465451E-7
432.50	9.5000001465451E-7
433.00	9.5000001465451E-7
433.50	9.5000001465451E-7
434.00	1.1864999578393E-6
434.50	1.2438000567272E-6
435.00	9.5000001465451E-7
435.50	9.5000001465451E-7
436.00	9.5000001465451E-7
436.50	9.5000001465451E-7
437.00	9.5000001465451E-7
437.50	1.2169100500614E-6
438.00	1.2497499710662E-6
438.50	9.5000001465451E-7
439.00	9.5000001465451E-7
439.50	9.5000001465451E-7
440.00	1.0899300377787E-6
440.50	1.6231999779848E-6
441.00	1.8967599544339E-6
441.50	1.2959500281795E-6
442.00	9.5000001465451E-7
442.50	9.5000001465451E-7
443.00	9.5000001465451E-7
443.50	9.5000001465451E-7
444.00	9.5000001465451E-7
444.50	9.5000001465451E-7
445.00	1.1401599522287E-6
445.50	1.9789499674516E-6
446.00	2.2674801130051E-6
446.50	1.6831600078149E-6
447.00	9.5000001465451E-7
447.50	1.2307200449868E-6
448.00	1.5015899634818E-6
448.50	1.732800001264E-6
449.00	1.6426099591627E-6
449.50	1.1394799912523E-6
450.00	9.5000001465451E-7
450.50	9.5000001465451E-7
451.00	9.5000001465451E-7
451.50	9.5000001465451E-7
452.00	9.5000001465451E-7
452.50	9.5000001465451E-7
453.00	9.5000001465451E-7
453.50	9.5000001465451E-7
454.00	9.5000001465451E-7
454.50	9.5000001465451E-7
455.00	9.5000001465451E-7
455.50	9.5000001465451E-7
456.00	9.5000001465451E-7
456.50	9.5000001465451E-7
457.00	9.5000001465451E-7
457.50	9.5000001465451E-7
458.00	9.5000001465451E-7
458.50	9.5000001465451E-7
459.00	9.5000001465451E-7
459.50	9.5000001465451E-7
460.00	9.5000001465451E-7
460.50	9.5000001465451E-7
461.00	9.5000001465451E-7
461.50	9.5000001465451E-7
462.00	9.5000001465451E-7
462.50	9.5000001465451E-7
463.00	9.5000001465451E-7
463.50	1.0908399872278E-6
464.00	1.5598100162606E-6
464.50	1.0896600315391E-6
465.00	9.5000001465451E-7
465.50	9.5000001465451E-7
466.00	9.5000001465451E-7
466.50	9.5000001465451E-7
467.00	9.5000001465451E-7
467.50	9.5000001465451E-7
468.00	9.5000001465451E-7
468.50	9.5000001465451E-7
469.00	9.5000001465451E-7
469.50	9.5000001465451E-7
470.00	9.5000001465451E-7
470.50	9.5000001465451E-7
471.00	9.5000001465451E-7
471.50	1.1359300060576E-6
472.00	1.8404100501357E-6
472.50	3.5468199257593E-6
473.00	8.1660100477166E-6
473.50	2.4874199880287E-5
474.00	8.1954400229733E-5
474.50	0.00031528499675915
475.00	0.0014879199443385
475.50	0.011322000063956
476.00	0.087502099573612
476.50	0.31582999229431
477.00	0.60746097564697
477.50	0.7770299911499
478.00	0.84314602613449
478.50	0.88286799192429
479.00	0.90770900249481
479.50	0.89937001466751
480.00	0.85691201686859
480.50	0.82659500837326
481.00	0.84510600566864
481.50	0.90435898303986
482.00	0.94945502281189
482.50	0.95113301277161
483.00	0.92467802762985
483.50	0.91045600175858
484.00	0.92581099271774
484.50	0.95474499464035
485.00	0.97500497102737
485.50	0.97764998674393
486.00	0.9710059762001
486.50	0.96708101034164
487.00	0.96761000156403
487.50	0.96617597341537
488.00	0.95743298530579
488.50	0.94896697998047
489.00	0.94211101531982
489.50	0.94027298688889
490.00	0.93690097332001
490.50	0.93116998672485
491.00	0.92326301336288
491.50	0.91681200265884
492.00	0.92241901159286
492.50	0.9384880065918
493.00	0.95733201503754
493.50	0.97483098506927
494.00	0.98004001379013
494.50	0.97108101844788
495.00	0.95658797025681
495.50	0.94541198015213
496.00	0.94474202394485
496.50	0.95162498950958
497.00	0.9597100019455
497.50	0.96545398235321
498.00	0.96644198894501
498.50	0.94727802276611
499.00	0.82137298583984
499.50	0.42913800477982
500.00	0.2161809951067
500.50	0.03452830016613
501.00	0.0076476200483739
501.50	0.0015037299599499
502.00	0.00037600699579343
502.50	0.00011195799743291
503.00	3.7096400774317E-5
503.50	1.4179399840941E-5
504.00	5.7866200222634E-6
504.50	2.8280599053687E-6
505.00	1.4602300097977E-6
505.50	9.5000001465451E-7
506.00	9.5000001465451E-7
506.50	9.5000001465451E-7
507.00	9.5000001465451E-7
507.50	9.5000001465451E-7
508.00	9.5000001465451E-7
508.50	9.5000001465451E-7
509.00	9.5000001465451E-7
509.50	9.5000001465451E-7
510.00	9.5000001465451E-7
510.50	9.5000001465451E-7
511.00	9.5000001465451E-7
511.50	9.5000001465451E-7
512.00	9.5000001465451E-7
512.50	9.5000001465451E-7
513.00	9.5000001465451E-7
513.50	9.5000001465451E-7
514.00	9.8415000593377E-7
514.50	9.5000001465451E-7
515.00	9.5000001465451E-7
515.50	9.5000001465451E-7
516.00	9.5000001465451E-7
516.50	9.5000001465451E-7
517.00	9.5000001465451E-7
517.50	9.5000001465451E-7
518.00	9.5000001465451E-7
518.50	9.5000001465451E-7
519.00	9.5000001465451E-7
519.50	9.5000001465451E-7
520.00	9.5000001465451E-7
520.50	9.5000001465451E-7
521.00	9.5000001465451E-7
521.50	9.5000001465451E-7
522.00	9.5000001465451E-7
522.50	9.5000001465451E-7
523.00	9.5000001465451E-7
523.50	9.5000001465451E-7
524.00	9.5000001465451E-7
524.50	9.5000001465451E-7
525.00	9.5000001465451E-7
525.50	9.5000001465451E-7
526.00	9.5000001465451E-7
526.50	9.5000001465451E-7
527.00	9.5000001465451E-7
527.50	9.5000001465451E-7
528.00	9.5000001465451E-7
528.50	9.5000001465451E-7
529.00	9.5000001465451E-7
529.50	9.5000001465451E-7
530.00	9.5000001465451E-7
530.50	9.5000001465451E-7
531.00	9.5000001465451E-7
531.50	9.5000001465451E-7
532.00	9.5000001465451E-7
532.50	9.5000001465451E-7
533.00	9.5000001465451E-7
533.50	9.5000001465451E-7
534.00	9.5000001465451E-7
534.50	9.5000001465451E-7
535.00	9.5000001465451E-7
535.50	9.5000001465451E-7
536.00	9.5000001465451E-7
536.50	9.5000001465451E-7
537.00	9.5000001465451E-7
537.50	9.5000001465451E-7
538.00	9.5000001465451E-7
538.50	1.6074800441856E-6
539.00	2.9949098916404E-6
539.50	7.5136799750908E-6
540.00	1.9149800209561E-5
540.50	5.4519998229807E-5
541.00	0.00018709999858402
541.50	0.00068829499650747
542.00	0.0030746199190617
542.50	0.017872599884868
543.00	0.093646802008152
543.50	0.29493600130081
544.00	0.54841101169586
544.50	0.72596698999405
545.00	0.82701700925827
545.50	0.90194398164749
546.00	0.93706697225571
546.50	0.92821598052979
547.00	0.89544999599457
547.50	0.87225598096848
548.00	0.87389999628067
548.50	0.89876198768616
549.00	0.93429398536682
549.50	0.96148800849915
550.00	0.96529197692871
550.50	0.95183801651001
551.00	0.93482398986816
551.50	0.92716097831726
552.00	0.93366801738739
552.50	0.95177900791168
553.00	0.96903800964355
553.50	0.975889980793
554.00	0.96909099817276
554.50	0.95278298854828
555.00	0.93776702880859
555.50	0.93053698539734
556.00	0.93284797668457
556.50	0.9466649889946
557.00	0.9595890045166
557.50	0.97015100717545
558.00	0.97004097700119
558.50	0.9585930109024
559.00	0.94115000963211
559.50	0.92409700155258
560.00	0.91806197166443
560.50	0.92179602384567
561.00	0.93883699178696
561.50	0.9563649892807
562.00	0.9612410068512
562.50	0.95612502098083
563.00	0.9540119767189
563.50	0.95441800355911
564.00	0.92981797456741
564.50	0.86696398258209
565.00	0.76384299993515
565.50	0.51345002651215
566.00	0.25798198580742
566.50	0.039362300187349
567.00	0.0097136897966266
567.50	0.0017892300384119
568.00	0.0004469680134207
568.50	0.0001298279967159
569.00	4.3992698920192E-5
569.50	1.6325999240507E-5
570.00	6.8669301072077E-6
570.50	2.9712900868617E-6
571.00	1.4078000276641E-6
571.50	9.5000001465451E-7
572.00	9.5000001465451E-7
572.50	9.5000001465451E-7
573.00	9.5000001465451E-7
573.50	9.5000001465451E-7
574.00	9.5000001465451E-7
574.50	9.5000001465451E-7
575.00	9.5000001465451E-7
575.50	9.5000001465451E-7
576.00	9.5000001465451E-7
576.50	9.5000001465451E-7
577.00	9.5000001465451E-7
577.50	9.5000001465451E-7
578.00	9.5000001465451E-7
578.50	9.5000001465451E-7
579.00	9.5000001465451E-7
579.50	9.5000001465451E-7
580.00	9.5000001465451E-7
580.50	9.5000001465451E-7
581.00	9.5000001465451E-7
581.50	9.5000001465451E-7
582.00	9.5000001465451E-7
582.50	9.5000001465451E-7
583.00	9.5000001465451E-7
583.50	9.5000001465451E-7
584.00	9.5000001465451E-7
584.50	9.5000001465451E-7
585.00	9.5000001465451E-7
585.50	9.5000001465451E-7
586.00	9.5000001465451E-7
586.50	9.5000001465451E-7
587.00	9.5000001465451E-7
587.50	9.5000001465451E-7
588.00	9.5000001465451E-7
588.50	9.5000001465451E-7
589.00	9.5000001465451E-7
589.50	9.5000001465451E-7
590.00	9.5000001465451E-7
590.50	9.5000001465451E-7
591.00	9.5000001465451E-7
591.50	9.5000001465451E-7
592.00	9.5000001465451E-7
592.50	9.5000001465451E-7
593.00	9.5000001465451E-7
593.50	9.5000001465451E-7
594.00	9.5000001465451E-7
594.50	9.5000001465451E-7
595.00	9.5000001465451E-7
595.50	9.5000001465451E-7
596.00	9.5000001465451E-7
596.50	9.5000001465451E-7
597.00	9.5000001465451E-7
597.50	9.5000001465451E-7
598.00	9.5000001465451E-7
598.50	9.5000001465451E-7
599.00	9.5000001465451E-7
599.50	9.5000001465451E-7
600.00	9.5000001465451E-7
600.50	9.5000001465451E-7
601.00	9.5000001465451E-7
601.50	9.5000001465451E-7
602.00	9.5000001465451E-7
602.50	9.5000001465451E-7
603.00	9.5000001465451E-7
603.50	9.5000001465451E-7
604.00	9.5000001465451E-7
604.50	9.5000001465451E-7
605.00	9.5000001465451E-7
605.50	9.5000001465451E-7
606.00	9.5000001465451E-7
606.50	9.5000001465451E-7
607.00	9.5000001465451E-7
607.50	9.5000001465451E-7
608.00	9.5000001465451E-7
608.50	9.5000001465451E-7
609.00	9.5000001465451E-7
609.50	9.5000001465451E-7
610.00	9.5000001465451E-7
610.50	9.5000001465451E-7
611.00	9.5000001465451E-7
611.50	9.5000001465451E-7
612.00	9.5000001465451E-7
612.50	9.5000001465451E-7
613.00	9.5000001465451E-7
613.50	9.5000001465451E-7
614.00	9.5000001465451E-7
614.50	9.5000001465451E-7
615.00	9.5000001465451E-7
615.50	9.5000001465451E-7
616.00	9.5000001465451E-7
616.50	9.5000001465451E-7
617.00	9.5000001465451E-7
617.50	9.5000001465451E-7
618.00	9.5000001465451E-7
618.50	9.5000001465451E-7
619.00	9.5000001465451E-7
619.50	9.5000001465451E-7
620.00	9.5000001465451E-7
620.50	9.5000001465451E-7
621.00	9.5000001465451E-7
621.50	9.5000001465451E-7
622.00	9.5000001465451E-7
622.50	1.5158200312726E-6
623.00	2.9511800221371E-6
623.50	5.3943299462844E-6
624.00	1.2660399988818E-5
624.50	2.9477099815267E-5
625.00	7.419290341204E-5
625.50	0.000215912994463
626.00	0.00067439401755109
626.50	0.0024216501042247
627.00	0.011173100210726
627.50	0.056526500731707
628.00	0.2240139991045
628.50	0.53700298070908
629.00	0.82755398750305
629.50	0.94432801008224
630.00	0.95528900623322
630.50	0.95058798789978
631.00	0.95085102319717
631.50	0.95656299591064
632.00	0.96916800737381
632.50	0.97114598751068
633.00	0.96276497840881
633.50	0.95397698879242
634.00	0.95393198728561
634.50	0.96365797519684
635.00	0.97535502910614
635.50	0.97734701633453
636.00	0.97353702783585
636.50	0.96374499797821
637.00	0.96006798744202
637.50	0.96517699956894
638.00	0.9758620262146
638.50	0.98374599218369
639.00	0.98258501291275
639.50	0.97001701593399
640.00	0.95370602607727
640.50	0.94156801700592
641.00	0.94064301252365
641.50	0.94909799098969
642.00	0.96515399217606
642.50	0.9760400056839
643.00	0.97763502597809
643.50	0.96642601490021
644.00	0.95438498258591
644.50	0.94624000787735
645.00	0.94799602031708
645.50	0.95801901817322
646.00	0.9701110124588
646.50	0.98232197761536
647.00	0.9867929816246
647.50	0.98736000061035
648.00	0.98296797275543
648.50	0.97411900758743
649.00	0.96091997623444
649.50	0.95039600133896
650.00	0.94353497028351
650.50	0.93642497062683
651.00	0.90449798107147
651.50	0.8369380235672
652.00	0.75676798820496
652.50	0.61098599433899
653.00	0.35890299081802
653.50	0.053219798952341
654.00	0.024258399382234
654.50	0.004351309966296
655.00	0.0010223799617961
655.50	0.00029578400426544
656.00	0.0001002659992082
656.50	3.5878001654055E-5
657.00	1.4448700312641E-5
657.50	6.4924402067845E-6
658.00	2.9173600069043E-6
658.50	1.4168299458106E-6
659.00	9.5000001465451E-7
659.50	9.5000001465451E-7
660.00	9.5000001465451E-7
660.50	9.5000001465451E-7
661.00	9.5000001465451E-7
661.50	9.5000001465451E-7
662.00	9.5000001465451E-7
662.50	9.5000001465451E-7
663.00	9.5000001465451E-7
663.50	9.5000001465451E-7
664.00	9.5000001465451E-7
664.50	9.5000001465451E-7
665.00	9.5000001465451E-7
665.50	9.5000001465451E-7
666.00	9.5000001465451E-7
666.50	9.5000001465451E-7
667.00	9.5000001465451E-7
667.50	9.5000001465451E-7
668.00	9.5000001465451E-7
668.50	9.5000001465451E-7
669.00	9.5000001465451E-7
669.50	9.5000001465451E-7
670.00	9.5000001465451E-7
670.50	9.5000001465451E-7
671.00	9.5000001465451E-7
671.50	9.5000001465451E-7
672.00	9.5000001465451E-7
672.50	9.5000001465451E-7
673.00	9.5000001465451E-7
673.50	9.5000001465451E-7
674.00	9.5000001465451E-7
674.50	9.5000001465451E-7
675.00	9.5000001465451E-7
675.50	9.5000001465451E-7
676.00	9.5000001465451E-7
676.50	9.5000001465451E-7
677.00	9.5000001465451E-7
677.50	9.5000001465451E-7
678.00	9.5000001465451E-7
678.50	9.5000001465451E-7
679.00	9.5000001465451E-7
679.50	9.5000001465451E-7
680.00	9.5000001465451E-7
680.50	9.5000001465451E-7
681.00	9.5000001465451E-7
681.50	9.5000001465451E-7
682.00	9.5000001465451E-7
682.50	9.5000001465451E-7
683.00	9.5000001465451E-7
683.50	9.5000001465451E-7
684.00	9.5000001465451E-7
684.50	9.5000001465451E-7
685.00	9.5000001465451E-7
685.50	9.5000001465451E-7
686.00	9.5000001465451E-7
686.50	9.5000001465451E-7
687.00	9.5000001465451E-7
687.50	9.5000001465451E-7
688.00	9.5000001465451E-7
688.50	9.5000001465451E-7
689.00	9.5000001465451E-7
689.50	9.5000001465451E-7
690.00	9.5000001465451E-7
690.50	9.5000001465451E-7
691.00	9.5000001465451E-7
691.50	9.5000001465451E-7
692.00	9.5000001465451E-7
692.50	9.5000001465451E-7
693.00	9.5000001465451E-7
693.50	9.5000001465451E-7
694.00	9.5000001465451E-7
694.50	9.5000001465451E-7
695.00	9.5000001465451E-7
695.50	9.5000001465451E-7
696.00	9.5000001465451E-7
696.50	9.5000001465451E-7
697.00	9.5000001465451E-7
697.50	9.5000001465451E-7
698.00	9.5000001465451E-7
698.50	9.5000001465451E-7
699.00	9.5000001465451E-7
699.50	9.5000001465451E-7
700.00	9.5000001465451E-7
700.50	9.5000001465451E-7
701.00	9.5000001465451E-7
701.50	9.5000001465451E-7
702.00	9.5000001465451E-7
702.50	9.5000001465451E-7
703.00	9.5000001465451E-7
703.50	9.5000001465451E-7
704.00	9.5000001465451E-7
704.50	9.5000001465451E-7
705.00	9.5000001465451E-7
705.50	9.5000001465451E-7
706.00	9.5000001465451E-7
706.50	9.5000001465451E-7
707.00	9.5000001465451E-7
707.50	9.5000001465451E-7
708.00	9.5000001465451E-7
708.50	9.5000001465451E-7
709.00	9.5000001465451E-7
709.50	9.5000001465451E-7
710.00	9.5000001465451E-7
710.50	9.5000001465451E-7
711.00	9.5000001465451E-7
711.50	9.5000001465451E-7
712.00	9.5000001465451E-7
712.50	9.5000001465451E-7
713.00	9.5000001465451E-7
713.50	9.5000001465451E-7
714.00	9.5000001465451E-7
714.50	9.5000001465451E-7
715.00	9.5000001465451E-7
715.50	9.5000001465451E-7
716.00	9.5000001465451E-7
716.50	9.5000001465451E-7
717.00	9.5000001465451E-7
717.50	9.5000001465451E-7
718.00	9.5000001465451E-7
718.50	9.5000001465451E-7
719.00	9.5000001465451E-7
719.50	9.5000001465451E-7
720.00	9.5000001465451E-7
720.50	9.5000001465451E-7
721.00	9.5000001465451E-7
721.50	9.5000001465451E-7
722.00	9.5000001465451E-7
722.50	9.5000001465451E-7
723.00	9.5000001465451E-7
723.50	1.067779976438E-6
724.00	9.5000001465451E-7
724.50	9.5000001465451E-7
725.00	9.5000001465451E-7
725.50	9.5000001465451E-7
726.00	9.5000001465451E-7
726.50	9.5000001465451E-7
727.00	9.5000001465451E-7
727.50	9.5000001465451E-7
728.00	9.5000001465451E-7
728.50	9.5000001465451E-7
729.00	9.5000001465451E-7
729.50	9.5000001465451E-7
730.00	9.5000001465451E-7
730.50	9.5000001465451E-7
731.00	9.5000001465451E-7
731.50	9.5000001465451E-7
732.00	9.5000001465451E-7
732.50	1.425490040674E-6
733.00	1.7138600014732E-6
733.50	1.1662499446174E-6
734.00	9.5000001465451E-7
734.50	9.5000001465451E-7
735.00	9.5000001465451E-7
735.50	9.5000001465451E-7
736.00	9.5000001465451E-7
736.50	9.5000001465451E-7
737.00	9.5000001465451E-7
737.50	9.5000001465451E-7
738.00	9.5000001465451E-7
738.50	9.5000001465451E-7
739.00	9.5000001465451E-7
739.50	9.5000001465451E-7
740.00	9.5000001465451E-7
740.50	9.5000001465451E-7
741.00	9.5000001465451E-7
741.50	9.5000001465451E-7
742.00	9.5000001465451E-7
742.50	9.5000001465451E-7
743.00	9.5000001465451E-7
743.50	9.5000001465451E-7
744.00	9.5000001465451E-7
744.50	9.5000001465451E-7
745.00	9.5000001465451E-7
745.50	9.5000001465451E-7
746.00	9.5000001465451E-7
746.50	9.5000001465451E-7
747.00	9.5000001465451E-7
747.50	9.5000001465451E-7
748.00	9.5000001465451E-7
748.50	9.5000001465451E-7
749.00	1.0603299642753E-6
749.50	1.7688900015855E-6
750.00	2.6923601126327E-6
750.50	3.7776198951178E-6
751.00	2.9679199542443E-6
751.50	2.4232599571405E-6
752.00	1.6140099887707E-6
752.50	1.0824400078491E-6
753.00	1.0630500355546E-6
753.50	1.0230700127067E-6
754.00	9.5000001465451E-7
754.50	9.5000001465451E-7
755.00	1.0120500064659E-6
755.50	9.5000001465451E-7
756.00	1.1254199989708E-6
756.50	9.585020279701E-7
757.00	1.1725800277418E-6
757.50	1.5706500562374E-6
758.00	1.051730009749E-6
758.50	1.0356600341765E-6
759.00	1.4531300394083E-6
759.50	9.5000001465451E-7
760.00	9.5000001465451E-7
760.50	9.5000001465451E-7
761.00	9.5000001465451E-7
761.50	9.5000001465451E-7
762.00	9.5000001465451E-7
762.50	9.5000001465451E-7
763.00	9.5000001465451E-7
763.50	9.5881000561349E-7
764.00	9.5000001465451E-7
764.50	1.2545000345199E-6
765.00	1.234109959114E-6
765.50	1.6133200233526E-6
766.00	1.5357600204879E-6
766.50	1.1491199529701E-6
767.00	9.5000001465451E-7
767.50	9.5000001465451E-7
768.00	9.5000001465451E-7
768.50	9.5000001465451E-7
769.00	9.5000001465451E-7
769.50	9.5000001465451E-7
770.00	9.5000001465451E-7
770.50	9.5000001465451E-7
771.00	9.5000001465451E-7
771.50	9.5000001465451E-7
772.00	9.5000001465451E-7
772.50	9.5000001465451E-7
773.00	9.5000001465451E-7
773.50	9.5000001465451E-7
774.00	9.5000001465451E-7
774.50	9.5000001465451E-7
775.00	9.5000001465451E-7
775.50	9.5000001465451E-7
776.00	9.5000001465451E-7
776.50	9.5000001465451E-7
777.00	9.5000001465451E-7
777.50	9.5000001465451E-7
778.00	9.5000001465451E-7
778.50	9.5000001465451E-7
779.00	9.5000001465451E-7
779.50	9.5000001465451E-7
780.00	9.5000001465451E-7
780.50	9.5000001465451E-7
781.00	9.5000001465451E-7
781.50	9.5000001465451E-7
782.00	9.5000001465451E-7
782.50	9.5000001465451E-7
783.00	9.5000001465451E-7
783.50	9.5000001465451E-7
784.00	9.5000001465451E-7
784.50	9.5000001465451E-7
785.00	9.5000001465451E-7
785.50	9.5000001465451E-7
786.00	9.5000001465451E-7
786.50	9.5000001465451E-7
787.00	9.5000001465451E-7
787.50	9.5000001465451E-7
788.00	9.5000001465451E-7
788.50	9.5000001465451E-7
789.00	9.5000001465451E-7
789.50	9.5000001465451E-7
790.00	9.5000001465451E-7
790.50	9.5000001465451E-7
791.00	9.5000001465451E-7
791.50	9.5000001465451E-7
792.00	9.5000001465451E-7
792.50	9.5000001465451E-7
793.00	9.5000001465451E-7
793.50	9.5000001465451E-7
794.00	9.5000001465451E-7
794.50	9.5000001465451E-7
795.00	9.5000001465451E-7
795.50	9.5000001465451E-7
796.00	9.5000001465451E-7
796.50	9.5000001465451E-7
797.00	9.5000001465451E-7
797.50	9.5000001465451E-7
798.00	9.5000001465451E-7
798.50	9.5000001465451E-7
799.00	9.5000001465451E-7
799.50	9.5000001465451E-7
800.00	9.5000001465451E-7
800.50	9.5000001465451E-7
801.00	9.5000001465451E-7
801.50	9.5000001465451E-7
802.00	9.5000001465451E-7
802.50	9.5000001465451E-7
803.00	9.5000001465451E-7
803.50	9.5000001465451E-7
804.00	9.5000001465451E-7
804.50	9.5000001465451E-7
805.00	9.5000001465451E-7
805.50	9.5000001465451E-7
806.00	9.5000001465451E-7
806.50	9.5000001465451E-7
807.00	9.5000001465451E-7
807.50	9.5000001465451E-7
808.00	9.5000001465451E-7
808.50	9.5000001465451E-7
809.00	9.5000001465451E-7
809.50	9.5000001465451E-7
810.00	9.5000001465451E-7
810.50	9.5000001465451E-7
811.00	9.5000001465451E-7
811.50	9.5000001465451E-7
812.00	9.5000001465451E-7
812.50	9.5000001465451E-7
813.00	9.5000001465451E-7
813.50	9.5000001465451E-7
814.00	9.5000001465451E-7
814.50	9.5000001465451E-7
815.00	9.5000001465451E-7
815.50	9.5000001465451E-7
816.00	9.5000001465451E-7
816.50	9.5000001465451E-7
817.00	9.5000001465451E-7
817.50	9.5000001465451E-7
818.00	9.5000001465451E-7
818.50	9.5000001465451E-7
819.00	9.5000001465451E-7
819.50	9.5000001465451E-7
820.00	9.5000001465451E-7
820.50	9.5000001465451E-7
821.00	9.5000001465451E-7
821.50	9.5000001465451E-7
822.00	9.5000001465451E-7
822.50	9.5000001465451E-7
823.00	1.0951299600492E-6
823.50	9.9577505352499E-7
824.00	9.5000001465451E-7
824.50	9.5000001465451E-7
825.00	9.5000001465451E-7
825.50	9.5000001465451E-7
826.00	9.5000001465451E-7
826.50	9.5000001465451E-7
827.00	9.5000001465451E-7
827.50	9.5000001465451E-7
828.00	9.5000001465451E-7
828.50	9.5000001465451E-7
829.00	9.5000001465451E-7
829.50	9.5000001465451E-7
830.00	9.5000001465451E-7
830.50	9.5000001465451E-7
831.00	9.5000001465451E-7
831.50	9.5000001465451E-7
832.00	9.5000001465451E-7
832.50	9.5000001465451E-7
833.00	9.5000001465451E-7
833.50	9.5000001465451E-7
834.00	9.5000001465451E-7
834.50	9.5000001465451E-7
835.00	9.5000001465451E-7
835.50	9.5000001465451E-7
836.00	9.5000001465451E-7
836.50	9.5000001465451E-7
837.00	9.5000001465451E-7
837.50	9.5000001465451E-7
838.00	9.5000001465451E-7
838.50	1.0597400432744E-6
839.00	1.1293600437057E-6
839.50	9.5000001465451E-7
840.00	9.5000001465451E-7
840.50	9.5000001465451E-7
841.00	1.3211099485488E-6
841.50	9.5000001465451E-7
842.00	1.4793199625274E-6
842.50	9.5000001465451E-7
843.00	9.5000001465451E-7
843.50	9.5000001465451E-7
844.00	9.5000001465451E-7
844.50	9.5000001465451E-7
845.00	9.5000001465451E-7
845.50	1.1197099638593E-6
846.00	9.5000001465451E-7
846.50	9.5000001465451E-7
847.00	9.5000001465451E-7
847.50	1.3886999568058E-6
848.00	9.5000001465451E-7
848.50	9.5000001465451E-7
849.00	1.6001699805201E-6
849.50	2.553169906605E-6
850.00	2.0657000732172E-6
850.50	9.5000001465451E-7
851.00	9.5000001465451E-7
851.50	9.5000001465451E-7
852.00	9.5000001465451E-7
852.50	9.5000001465451E-7
853.00	9.5000001465451E-7
853.50	9.5000001465451E-7
854.00	9.5000001465451E-7
854.50	9.5000001465451E-7
855.00	9.5000001465451E-7
855.50	9.5000001465451E-7
856.00	9.5000001465451E-7
856.50	9.5000001465451E-7
857.00	9.511790040051E-7
857.50	1.6603299854978E-6
858.00	2.3697000415268E-6
858.50	1.5202699614747E-6
859.00	9.5000001465451E-7
859.50	1.2328099501246E-6
860.00	1.7929700106833E-6
860.50	1.4613899566029E-6
861.00	1.1289799886072E-6
861.50	9.5000001465451E-7
862.00	9.5000001465451E-7
862.50	9.5000001465451E-7
863.00	9.5000001465451E-7
863.50	9.5000001465451E-7
864.00	2.1549899429374E-6
864.50	1.2353699503365E-6
865.00	9.5000001465451E-7
865.50	9.5000001465451E-7
866.00	9.5000001465451E-7
866.50	9.5000001465451E-7
867.00	9.5000001465451E-7
867.50	9.5000001465451E-7
868.00	9.5000001465451E-7
868.50	9.5000001465451E-7
869.00	9.5000001465451E-7
869.50	9.5000001465451E-7
870.00	9.5000001465451E-7
870.50	9.5000001465451E-7
871.00	9.5000001465451E-7
871.50	9.5000001465451E-7
872.00	9.5000001465451E-7
872.50	9.5000001465451E-7
873.00	9.5000001465451E-7
873.50	9.5000001465451E-7
874.00	9.5000001465451E-7
874.50	1.0472000440132E-6
875.00	1.6904799622353E-6
875.50	9.5000001465451E-7
876.00	9.5000001465451E-7
876.50	9.5000001465451E-7
877.00	1.8135400523533E-6
877.50	9.5000001465451E-7
878.00	9.5000001465451E-7
878.50	1.2625399676836E-6
879.00	2.9165601063141E-6
879.50	1.2801499451598E-6
880.00	9.5000001465451E-7
880.50	9.5000001465451E-7
881.00	9.5000001465451E-7
881.50	9.5000001465451E-7
882.00	9.5000001465451E-7
882.50	1.2027800266878E-6
883.00	2.1422099507618E-6
883.50	1.9468500340736E-6
884.00	1.7524399709146E-6
884.50	9.5000001465451E-7
885.00	9.5000001465451E-7
885.50	9.5000001465451E-7
886.00	9.5000001465451E-7
886.50	9.5000001465451E-7
887.00	9.5000001465451E-7
887.50	9.5000001465451E-7
888.00	1.3107099903209E-6
888.50	1.1150799537063E-6
889.00	9.5000001465451E-7
889.50	9.5000001465451E-7
890.00	9.5000001465451E-7
890.50	9.5000001465451E-7
891.00	9.5000001465451E-7
891.50	9.5000001465451E-7
892.00	9.5000001465451E-7
892.50	9.5000001465451E-7
893.00	9.5000001465451E-7
893.50	9.5000001465451E-7
894.00	9.5000001465451E-7
894.50	9.5000001465451E-7
895.00	9.5000001465451E-7
895.50	9.5000001465451E-7
896.00	9.5000001465451E-7
896.50	1.1858400057463E-6
897.00	2.2976400941843E-6
897.50	1.003400029731E-6
898.00	9.5000001465451E-7
898.50	9.5000001465451E-7
899.00	9.5000001465451E-7
899.50	9.5000001465451E-7
900.00	9.5000001465451E-7
900.50	9.5000001465451E-7
901.00	9.5000001465451E-7
901.50	9.5000001465451E-7
902.00	9.5000001465451E-7
902.50	9.5000001465451E-7
903.00	1.5234400052577E-6
903.50	9.5000001465451E-7
904.00	9.5000001465451E-7
904.50	1.1909600061699E-6
905.00	2.0716099697893E-6
905.50	1.7182300098284E-6
906.00	1.3647199921252E-6
906.50	1.3446100410874E-6
907.00	1.3245600030132E-6
907.50	9.5000001465451E-7
908.00	9.5000001465451E-7
908.50	9.5000001465451E-7
909.00	9.5000001465451E-7
909.50	9.5000001465451E-7
910.00	9.5000001465451E-7
910.50	9.5000001465451E-7
911.00	9.5000001465451E-7
911.50	9.5000001465451E-7
912.00	9.5000001465451E-7
912.50	9.5000001465451E-7
913.00	9.5000001465451E-7
913.50	9.5000001465451E-7
914.00	9.5000001465451E-7
914.50	9.5000001465451E-7
915.00	1.0875900215979E-6
915.50	1.4887599490976E-6
916.00	1.8908400534201E-6
916.50	1.2262599966562E-6
917.00	9.5000001465451E-7
917.50	1.3295899634613E-6
918.00	2.0891000076517E-6
918.50	9.5000001465451E-7
919.00	9.5000001465451E-7
919.50	9.5000001465451E-7
920.00	1.4999300219642E-6
920.50	1.1783199624915E-6
921.00	9.5000001465451E-7
921.50	9.5000001465451E-7
922.00	9.5000001465451E-7
922.50	9.5000001465451E-7
923.00	2.3049799438013E-6
923.50	9.5000001465451E-7
924.00	9.5000001465451E-7
924.50	9.5000001465451E-7
925.00	9.5000001465451E-7
925.50	9.5000001465451E-7
926.00	1.2091400094505E-6
926.50	9.5000001465451E-7
927.00	9.5000001465451E-7
927.50	9.5000001465451E-7
928.00	1.0367100458097E-6
928.50	9.5000001465451E-7
929.00	9.5000001465451E-7
929.50	9.5000001465451E-7
930.00	1.3738100506089E-6
930.50	9.5000001465451E-7
931.00	9.5000001465451E-7
931.50	9.5000001465451E-7
932.00	9.5000001465451E-7
932.50	9.5000001465451E-7
933.00	1.8760499642667E-6
933.50	1.5710199932073E-6
934.00	1.2675800462603E-6
934.50	9.5000001465451E-7
935.00	9.5000001465451E-7
935.50	9.5000001465451E-7
936.00	9.5000001465451E-7
936.50	9.5000001465451E-7
937.00	9.5000001465451E-7
937.50	1.0583099765427E-6
938.00	1.9647900444397E-6
938.50	1.7340099702778E-6
939.00	1.5024900221761E-6
939.50	1.2061500456184E-6
940.00	9.5000001465451E-7
940.50	9.5000001465451E-7
941.00	9.5000001465451E-7
941.50	9.5000001465451E-7
942.00	1.3488700005837E-6
942.50	9.5000001465451E-7
943.00	9.5000001465451E-7
943.50	9.5000001465451E-7
944.00	9.5000001465451E-7
944.50	9.5000001465451E-7
945.00	9.5000001465451E-7
945.50	9.5000001465451E-7
946.00	9.5000001465451E-7
946.50	9.5000001465451E-7
947.00	9.5000001465451E-7
947.50	9.5000001465451E-7
948.00	1.1051299679821E-6
948.50	9.5000001465451E-7
949.00	9.5000001465451E-7
949.50	9.5000001465451E-7
950.00	9.5000001465451E-7
950.50	9.5000001465451E-7
951.00	9.5000001465451E-7
951.50	9.5000001465451E-7
952.00	1.3135600056557E-6
952.50	1.5466999911951E-6
953.00	1.7801900185077E-6
953.50	1.957819904419E-6
954.00	2.1362800453062E-6
954.50	9.5000001465451E-7
955.00	9.5000001465451E-7
955.50	9.5000001465451E-7
956.00	1.0156800271943E-6
956.50	9.5000001465451E-7
957.00	9.5000001465451E-7
957.50	9.5000001465451E-7
958.00	9.5000001465451E-7
958.50	1.0453900358698E-6
959.00	1.643250016059E-6
959.50	1.33543994707E-6
960.00	1.0287600389347E-6
960.50	9.5000001465451E-7
961.00	9.5000001465451E-7
961.50	9.5000001465451E-7
962.00	9.6730900622788E-7
962.50	1.5369299717349E-6
963.00	2.1047499103588E-6
963.50	2.3535299078503E-6
964.00	2.6020400127891E-6
964.50	9.5000001465451E-7
965.00	9.5000001465451E-7
965.50	9.5000001465451E-7
966.00	9.5000001465451E-7
966.50	9.5000001465451E-7
967.00	9.5000001465451E-7
967.50	1.8306500351173E-6
968.00	3.0139899536152E-6
968.50	1.7091899735533E-6
969.00	9.5000001465451E-7
969.50	9.5000001465451E-7
970.00	9.5000001465451E-7
970.50	9.5000001465451E-7
971.00	9.5000001465451E-7
971.50	9.5000001465451E-7
972.00	9.5000001465451E-7
972.50	9.5000001465451E-7
973.00	9.5000001465451E-7
973.50	1.1158299457747E-6
974.00	1.7915499483934E-6
974.50	9.5000001465451E-7
975.00	9.5000001465451E-7
975.50	9.5000001465451E-7
976.00	1.4150699598758E-6
976.50	1.5506899444517E-6
977.00	1.6865900533958E-6
977.50	9.5000001465451E-7
978.00	9.5000001465451E-7
978.50	9.5000001465451E-7
979.00	1.6935599660428E-6
979.50	1.3718499758397E-6
980.00	1.0516499742153E-6
980.50	9.5000001465451E-7
981.00	9.5000001465451E-7
981.50	1.3273099739308E-6
982.00	2.0353199943202E-6
982.50	2.0722700355691E-6
983.00	2.1090500013088E-6
983.50	1.4717400063091E-6
984.00	9.5000001465451E-7
984.50	1.1090600082753E-6
985.00	1.3827999509886E-6
985.50	9.5000001465451E-7
986.00	9.5000001465451E-7
986.50	9.5000001465451E-7
987.00	9.5000001465451E-7
987.50	1.4902999510014E-6
988.00	2.3807399429643E-6
988.50	2.1433399979287E-6
989.00	1.9061100147155E-6
989.50	1.7455399756727E-6
990.00	1.5854500361456E-6
990.50	2.0106799638597E-6
991.00	2.4343000859517E-6
991.50	1.5711999594714E-6
992.00	9.5000001465451E-7
992.50	9.5000001465451E-7
993.00	9.5000001465451E-7
993.50	1.5658299616916E-6
994.00	2.3963300463947E-6
994.50	2.0853499336226E-6
995.00	1.7753200154402E-6
995.50	1.7929900195668E-6
996.00	1.8106400148099E-6
996.50	2.4023299829423E-6
997.00	2.9965399335197E-6
997.50	2.7395299184718E-6
998.00	2.4820699309203E-6
998.50	1.1474800203359E-6
999.00	9.5000001465451E-7
999.50	9.5000001465451E-7
1000.00	9.5000001465451E-7
1000.50	9.5000001465451E-7
1001.00	9.5000001465451E-7
1001.50	1.0425600294184E-6
1002.00	1.4712200027134E-6
1002.50	1.20977995266E-6
1003.00	9.5000001465451E-7
1003.50	9.5000001465451E-7
1004.00	9.5000001465451E-7
1004.50	9.5000001465451E-7
1005.00	1.1429899586801E-6
1005.50	1.1351700095474E-6
1006.00	1.1273999689365E-6
1006.50	1.2197799605929E-6
1007.00	1.3121399433658E-6
1007.50	1.4329699524751E-6
1008.00	1.5536800219706E-6
1008.50	9.7345196081733E-7
1009.00	9.5000001465451E-7
1009.50	9.5000001465451E-7
1010.00	1.0723499599408E-6
1010.50	1.3789300510325E-6
1011.00	1.6855000239957E-6
1011.50	9.5000001465451E-7
1012.00	9.5000001465451E-7
1012.50	9.5000001465451E-7
1013.00	9.5000001465451E-7
1013.50	9.5000001465451E-7
1014.00	1.325150037701E-6
1014.50	1.3431000525088E-6
1015.00	1.361149998047E-6
1015.50	9.5000001465451E-7
1016.00	9.5000001465451E-7
1016.50	9.5000001465451E-7
1017.00	9.5000001465451E-7
1017.50	9.5000001465451E-7
1018.00	9.5000001465451E-7
1018.50	1.003400029731E-6
1019.00	1.946430074895E-6
1019.50	1.9208500816603E-6
1020.00	1.8951700440084E-6
1020.50	1.4522499895975E-6
1021.00	1.0099199698743E-6
1021.50	9.5592497473262E-7
1022.00	9.5000001465451E-7
1022.50	1.8553899963081E-6
1023.00	2.8124200071034E-6
1023.50	3.1018300887808E-6
1024.00	3.3906599128386E-6
1024.50	1.1628200127234E-6
1025.00	9.5000001465451E-7
1025.50	9.5000001465451E-7
1026.00	9.5000001465451E-7
1026.50	9.5000001465451E-7
1027.00	1.3001699699089E-6
1027.50	9.5000001465451E-7
1028.00	9.5000001465451E-7
1028.50	9.5000001465451E-7
1029.00	2.1316100173863E-6
1029.50	9.5000001465451E-7
1030.00	9.5000001465451E-7
1030.50	9.5000001465451E-7
1031.00	1.8321100014873E-6
1031.50	2.1078699319332E-6
1032.00	2.3849700028222E-6
1032.50	9.994610081776E-7
1033.00	9.5000001465451E-7
1033.50	9.5000001465451E-7
1034.00	9.5000001465451E-7
1034.50	9.5000001465451E-7
1035.00	9.5000001465451E-7
1035.50	9.5000001465451E-7
1036.00	9.5000001465451E-7
1036.50	9.5000001465451E-7
1037.00	9.5000001465451E-7
1037.50	9.5000001465451E-7
1038.00	9.5000001465451E-7
1038.50	1.2825499879909E-6
1039.00	1.6462699932163E-6
1039.50	1.5640099491065E-6
1040.00	1.48130004618E-6
1040.50	9.5000001465451E-7
1041.00	9.5000001465451E-7
1041.50	9.5000001465451E-7
1042.00	9.5000001465451E-7
1042.50	9.5000001465451E-7
1043.00	9.8283396710031E-7
1043.50	9.5000001465451E-7
1044.00	9.5000001465451E-7
1044.50	1.264420006919E-6
1045.00	2.0060899714736E-6
1045.50	1.5503900385738E-6
1046.00	1.095500010706E-6
1046.50	1.0121999594048E-6
1047.00	9.5000001465451E-7
1047.50	9.5000001465451E-7
1048.00	9.5000001465451E-7
1048.50	9.5000001465451E-7
1049.00	2.1526100226765E-6
1049.50	1.9106801119051E-6
1050.00	1.6677099665685E-6
1050.50	1.2588400295499E-6
1051.00	9.5000001465451E-7
1051.50	9.5000001465451E-7
1052.00	9.5000001465451E-7
1052.50	9.5000001465451E-7
1053.00	9.5000001465451E-7
1053.50	9.5000001465451E-7
1054.00	1.0924200068985E-6
1054.50	9.5000001465451E-7
1055.00	9.5000001465451E-7
1055.50	9.5000001465451E-7
1056.00	2.0121599391132E-6
1056.50	1.7580499616088E-6
1057.00	1.5024399999675E-6
1057.50	9.5000001465451E-7
1058.00	9.5000001465451E-7
1058.50	9.5000001465451E-7
1059.00	9.5000001465451E-7
1059.50	9.5000001465451E-7
1060.00	1.8122200344806E-6
1060.50	1.5392399745906E-6
1061.00	1.2645599554162E-6
1061.50	1.061980015038E-6
1062.00	9.5000001465451E-7
1062.50	9.9378405593598E-7
1063.00	1.1270000186414E-6
1063.50	1.381359993502E-6
1064.00	1.6341799664588E-6
1064.50	1.0653400295269E-6
1065.00	9.5000001465451E-7
1065.50	1.1718700534402E-6
1066.00	1.8466799929229E-6
1066.50	1.8263999663759E-6
1067.00	1.8060500224237E-6
1067.50	1.6008999637052E-6
1068.00	1.3947700381323E-6
1068.50	1.6809799490147E-6
1069.00	1.968900050997E-6
1069.50	1.9340000108059E-6
1070.00	1.8995400523636E-6
1070.50	2.0028398921568E-6
1071.00	2.1063199255877E-6
1071.50	1.6995900296024E-6
1072.00	1.2924000429848E-6
1072.50	9.5000001465451E-7
1073.00	9.5000001465451E-7
1073.50	1.5622599676135E-6
1074.00	2.6635300400812E-6
1074.50	1.2874600088253E-6
1075.00	9.5000001465451E-7
1075.50	1.0580499747448E-6
1076.00	2.1989999368088E-6
1076.50	1.944139967236E-6
1077.00	1.6872800188139E-6
1077.50	9.5000001465451E-7
1078.00	9.5000001465451E-7
1078.50	9.5000001465451E-7
1079.00	9.5000001465451E-7
1079.50	9.5000001465451E-7
1080.00	9.5000001465451E-7
1080.50	9.5000001465451E-7
1081.00	9.5000001465451E-7
1081.50	9.5000001465451E-7
1082.00	9.5000001465451E-7
1082.50	9.5000001465451E-7
1083.00	9.6869598564808E-7
1083.50	9.5000001465451E-7
1084.00	9.5000001465451E-7
1084.50	9.5000001465451E-7
1085.00	9.5000001465451E-7
1085.50	9.5000001465451E-7
1086.00	1.9789899852185E-6
1086.50	1.6604400343567E-6
1087.00	1.33941000513E-6
1087.50	1.6628799812679E-6
1088.00	1.9853400772263E-6
1088.50	1.4361399962581E-6
1089.00	9.5000001465451E-7
1089.50	1.1214799542358E-6
1090.00	1.3596300050267E-6
1090.50	1.3982800055601E-6
1091.00	1.4367800531545E-6
1091.50	1.2691000392806E-6
1092.00	1.101480052057E-6
1092.50	9.5000001465451E-7
1093.00	9.5000001465451E-7
1093.50	9.5000001465451E-7
1094.00	9.5000001465451E-7
1094.50	9.8411396720621E-7
1095.00	2.4915500489442E-6
1095.50	1.6982099850793E-6
1096.00	9.5000001465451E-7
1096.50	2.2557899228559E-6
1097.00	3.6168000860926E-6
1097.50	2.4268599645438E-6
1098.00	1.2395099702189E-6
1098.50	1.0576900422166E-6
1099.00	9.5000001465451E-7
1099.50	9.5000001465451E-7
1100.00	9.5000001465451E-7
