290.0	4.2442e-06
290.2	3.4485e-06
290.4	2.8019e-06
290.6	2.2766e-06
290.8	1.8498e-06
291.0	1.503e-06
291.2	1.2212e-06
291.4	9.9221e-07
291.6	8.0618e-07
291.8	6.5503e-07
292.0	5.3222e-07
292.2	4.3244e-07
292.4	3.5136e-07
292.6	2.8548e-07
292.8	2.3196e-07
293.0	1.9829e-07
293.2	2.2874e-07
293.4	2.6386e-07
293.6	3.0438e-07
293.8	3.5111e-07
294.0	4.0502e-07
294.2	4.6721e-07
294.4	5.3895e-07
294.6	6.217e-07
294.8	7.1716e-07
295.0	8.2727e-07
295.2	9.4807e-07
295.4	1.0865e-06
295.6	1.2452e-06
295.8	1.427e-06
296.0	1.6353e-06
296.2	1.8741e-06
296.4	2.1478e-06
296.6	2.4614e-06
296.8	2.8208e-06
297.0	3.2327e-06
297.2	3.7048e-06
297.4	4.2457e-06
297.6	4.8657e-06
297.8	5.5762e-06
298.0	6.1964e-06
298.2	5.1335e-06
298.4	4.2528e-06
298.6	3.5233e-06
298.8	2.9189e-06
299.0	2.4182e-06
299.2	2.0034e-06
299.4	1.6597e-06
299.6	1.375e-06
299.8	1.1391e-06
300.0	9.437e-07
300.2	7.8182e-07
300.4	6.477e-07
300.6	5.3659e-07
300.8	4.4454e-07
301.0	3.6828e-07
301.2	3.0511e-07
301.4	2.5277e-07
301.6	2.0941e-07
301.8	1.9065e-07
302.0	1.9526e-07
302.2	1.9997e-07
302.4	2.048e-07
302.6	2.0975e-07
302.8	2.1481e-07
303.0	2.2e-07
303.2	2.2531e-07
303.4	2.3075e-07
303.6	2.3632e-07
303.8	2.4203e-07
304.0	2.4787e-07
304.2	2.5386e-07
304.4	2.5999e-07
304.6	2.6627e-07
304.8	2.727e-07
305.0	2.7928e-07
305.2	2.188e-07
305.4	1.7141e-07
305.6	1.4159e-07
305.8	1.4108e-07
306.0	1.4057e-07
306.2	1.4007e-07
306.4	1.3956e-07
306.6	1.3906e-07
306.8	1.3856e-07
307.0	1.3806e-07
307.2	1.3757e-07
307.4	1.3707e-07
307.6	1.3658e-07
307.8	1.3609e-07
308.0	1.356e-07
308.2	1.3511e-07
308.4	1.3463e-07
308.6	1.3415e-07
308.8	1.3366e-07
309.0	1.3318e-07
309.2	1.327e-07
309.4	1.447e-07
309.6	1.6961e-07
309.8	1.9881e-07
310.0	2.3304e-07
310.2	2.7316e-07
310.4	3.2019e-07
310.6	3.7531e-07
310.8	4.3992e-07
311.0	5.1566e-07
311.2	6.0443e-07
311.4	7.0849e-07
311.6	8.3046e-07
311.8	9.7343e-07
312.0	1.141e-06
312.2	1.3374e-06
312.4	1.5677e-06
312.6	1.8376e-06
312.8	2.1539e-06
313.0	2.5247e-06
313.2	2.5616e-06
313.4	2.5554e-06
313.6	2.5492e-06
313.8	2.543e-06
314.0	2.5368e-06
314.2	2.5306e-06
314.4	2.5244e-06
314.6	2.5183e-06
314.8	2.5122e-06
315.0	2.5061e-06
315.2	2.5e-06
315.4	2.4939e-06
315.6	2.4878e-06
315.8	2.4818e-06
316.0	2.4757e-06
316.2	2.4697e-06
316.4	2.4637e-06
316.6	2.4577e-06
316.8	2.3535e-06
317.0	1.9868e-06
317.2	1.6773e-06
317.4	1.416e-06
317.6	1.1954e-06
317.8	1.0091e-06
318.0	8.5191e-07
318.2	7.1919e-07
318.4	6.0714e-07
318.6	5.1255e-07
318.8	4.327e-07
319.0	3.6529e-07
319.2	3.0838e-07
319.4	2.6033e-07
319.6	2.1977e-07
319.8	1.8553e-07
320.0	1.5663e-07
320.2	1.3223e-07
320.4	1.1163e-07
320.6	1.0415e-07
320.8	1.0387e-07
321.0	1.036e-07
321.2	1.0333e-07
321.4	1.0305e-07
321.6	1.0278e-07
321.8	1.0251e-07
322.0	1.0224e-07
322.2	1.0197e-07
322.4	1.017e-07
322.6	1.0143e-07
322.8	1.0116e-07
323.0	1.009e-07
323.2	1.0063e-07
323.4	1.0037e-07
323.6	1.001e-07
323.8	9.9836e-08
324.0	9.9573e-08
324.2	9.931e-08
324.4	9.8195e-08
324.6	9.7062e-08
324.8	9.5942e-08
325.0	9.4835e-08
325.2	9.3741e-08
325.4	9.2659e-08
325.6	9.159e-08
325.8	9.0533e-08
326.0	8.9488e-08
326.2	8.8456e-08
326.4	8.7435e-08
326.6	8.6426e-08
326.8	8.5429e-08
327.0	8.4443e-08
327.2	8.3469e-08
327.4	8.2506e-08
327.6	8.1554e-08
327.8	8.0613e-08
328.0	7.9709e-08
328.2	7.8868e-08
328.4	7.8036e-08
328.6	7.7212e-08
328.8	7.6397e-08
329.0	7.5591e-08
329.2	7.4793e-08
329.4	7.4004e-08
329.6	7.3223e-08
329.8	7.245e-08
330.0	7.1686e-08
330.2	7.0929e-08
330.4	7.0181e-08
330.6	6.944e-08
330.8	6.8707e-08
331.0	6.7982e-08
331.2	6.7265e-08
331.4	6.6555e-08
331.6	6.5852e-08
331.8	7.0822e-08
332.0	7.8741e-08
332.2	8.7546e-08
332.4	9.7335e-08
332.6	1.0822e-07
332.8	1.2032e-07
333.0	1.3377e-07
333.2	1.4873e-07
333.4	1.6536e-07
333.6	1.8385e-07
333.8	2.0441e-07
334.0	2.2726e-07
334.2	2.5267e-07
334.4	2.8092e-07
334.6	3.1234e-07
334.8	3.4726e-07
335.0	3.8609e-07
335.2	4.8778e-07
335.4	6.1626e-07
335.6	6.9576e-07
335.8	6.0035e-07
336.0	5.1803e-07
336.2	4.4699e-07
336.4	3.857e-07
336.6	3.3281e-07
336.8	2.8717e-07
337.0	2.4779e-07
337.2	2.1382e-07
337.4	1.845e-07
337.6	1.592e-07
337.8	1.3737e-07
338.0	1.1853e-07
338.2	1.0228e-07
338.4	8.8253e-08
338.6	7.6151e-08
338.8	6.5709e-08
339.0	5.6698e-08
339.2	4.8924e-08
339.4	4.8638e-08
339.6	5.2013e-08
339.8	5.5623e-08
340.0	5.9483e-08
340.2	6.3612e-08
340.4	6.8026e-08
340.6	7.2747e-08
340.8	7.7796e-08
341.0	8.3195e-08
341.2	8.8969e-08
341.4	9.5144e-08
341.6	1.0175e-07
341.8	1.0881e-07
342.0	1.1636e-07
342.2	1.2444e-07
342.4	1.3307e-07
342.6	1.4231e-07
342.8	1.5218e-07
343.0	1.6192e-07
343.2	1.4979e-07
343.4	1.3858e-07
343.6	1.282e-07
343.8	1.186e-07
344.0	1.0971e-07
344.2	1.015e-07
344.4	9.3895e-08
344.6	8.6863e-08
344.8	8.0358e-08
345.0	7.4339e-08
345.2	6.8772e-08
345.4	6.3621e-08
345.6	5.8857e-08
345.8	5.4449e-08
346.0	5.0371e-08
346.2	4.6598e-08
346.4	4.3108e-08
346.6	3.988e-08
346.8	3.8141e-08
347.0	3.8193e-08
347.2	3.8245e-08
347.4	3.8297e-08
347.6	3.8349e-08
347.8	3.8401e-08
348.0	3.8453e-08
348.2	3.8505e-08
348.4	3.8557e-08
348.6	3.861e-08
348.8	3.8662e-08
349.0	3.8715e-08
349.2	3.8767e-08
349.4	3.882e-08
349.6	3.8873e-08
349.8	3.8926e-08
350.0	3.8978e-08
350.2	3.9031e-08
350.4	3.9084e-08
350.6	3.9112e-08
350.8	3.9134e-08
351.0	3.9155e-08
351.2	3.9177e-08
351.4	3.9199e-08
351.6	3.9221e-08
351.8	3.9242e-08
352.0	3.9264e-08
352.2	3.9286e-08
352.4	3.9308e-08
352.6	3.9329e-08
352.8	3.9351e-08
353.0	3.9373e-08
353.2	3.9395e-08
353.4	3.9417e-08
353.6	3.9439e-08
353.8	3.946e-08
354.0	3.9482e-08
354.2	3.9504e-08
354.4	3.9524e-08
354.6	3.9545e-08
354.8	3.9566e-08
355.0	3.9586e-08
355.2	3.9607e-08
355.4	3.9628e-08
355.6	3.9648e-08
355.8	3.9669e-08
356.0	3.969e-08
356.2	3.971e-08
356.4	3.9731e-08
356.6	3.9752e-08
356.8	3.9773e-08
357.0	3.9793e-08
357.2	3.9814e-08
357.4	3.9835e-08
357.6	3.9856e-08
357.8	3.9876e-08
358.0	4.0123e-08
358.2	4.0517e-08
358.4	4.0914e-08
358.6	4.1316e-08
358.8	4.1721e-08
359.0	4.2131e-08
359.2	4.2545e-08
359.4	4.2962e-08
359.6	4.3384e-08
359.8	4.381e-08
360.0	4.424e-08
360.2	4.4674e-08
360.4	4.5112e-08
360.6	4.5555e-08
360.8	4.6002e-08
361.0	4.6454e-08
361.2	4.691e-08
361.4	4.737e-08
361.6	4.7825e-08
361.8	4.7895e-08
362.0	4.7965e-08
362.2	4.8036e-08
362.4	4.8106e-08
362.6	4.8176e-08
362.8	4.8246e-08
363.0	4.8317e-08
363.2	4.8388e-08
363.4	4.8458e-08
363.6	4.8529e-08
363.8	4.86e-08
364.0	4.8671e-08
364.2	4.8742e-08
364.4	4.8814e-08
364.6	4.8885e-08
364.8	4.8956e-08
365.0	4.9028e-08
365.2	4.7943e-08
365.4	4.6882e-08
365.6	4.5845e-08
365.8	4.4831e-08
366.0	4.3839e-08
366.2	4.2869e-08
366.4	4.1921e-08
366.6	4.0993e-08
366.8	4.0086e-08
367.0	3.9498e-08
367.2	3.9449e-08
367.4	3.94e-08
367.6	3.9351e-08
367.8	3.9302e-08
368.0	3.9254e-08
368.2	3.9205e-08
368.4	3.9156e-08
368.6	3.9107e-08
368.8	3.9059e-08
369.0	3.901e-08
369.2	3.8962e-08
369.4	3.8913e-08
369.6	3.8865e-08
369.8	3.8817e-08
370.0	3.8768e-08
370.2	3.872e-08
370.4	3.8672e-08
370.6	3.8624e-08
370.8	3.8547e-08
371.0	3.846e-08
371.2	3.8374e-08
371.4	3.8287e-08
371.6	3.8201e-08
371.8	3.8115e-08
372.0	3.8029e-08
372.2	3.7944e-08
372.4	3.7858e-08
372.6	3.7773e-08
372.8	3.7688e-08
373.0	3.7603e-08
373.2	3.7518e-08
373.4	3.7434e-08
373.6	3.7349e-08
373.8	3.7265e-08
374.0	3.7181e-08
374.2	3.7098e-08
374.4	3.7014e-08
374.6	3.6927e-08
374.8	3.6841e-08
375.0	3.6754e-08
375.2	3.6668e-08
375.4	3.6582e-08
375.6	3.6497e-08
375.8	3.6411e-08
376.0	3.6326e-08
376.2	3.6241e-08
376.4	3.6156e-08
376.6	3.6071e-08
376.8	3.5987e-08
377.0	3.5903e-08
377.2	3.5818e-08
377.4	3.5735e-08
377.6	3.5651e-08
377.8	3.5567e-08
378.0	3.5484e-08
378.2	3.5371e-08
378.4	3.5231e-08
378.6	3.5093e-08
378.8	3.4954e-08
379.0	3.4817e-08
379.2	3.4679e-08
379.4	3.4543e-08
379.6	3.4407e-08
379.8	3.4271e-08
380.0	3.4136e-08
380.2	3.4002e-08
380.4	3.3868e-08
380.6	3.3734e-08
380.8	3.3601e-08
381.0	3.3469e-08
381.2	3.3337e-08
381.4	3.3206e-08
381.6	3.3075e-08
381.8	3.2944e-08
382.0	3.6846e-08
382.2	4.1515e-08
382.4	4.6775e-08
382.6	5.2703e-08
382.8	5.9381e-08
383.0	6.6906e-08
383.2	7.5384e-08
383.4	8.4936e-08
383.6	9.5699e-08
383.8	1.0783e-07
384.0	1.2149e-07
384.2	1.3688e-07
384.4	1.5423e-07
384.6	1.7377e-07
384.8	1.9579e-07
385.0	2.206e-07
385.2	2.4856e-07
385.4	2.8006e-07
385.6	2.8891e-07
385.8	2.5392e-07
386.0	2.2317e-07
386.2	1.9615e-07
386.4	1.7239e-07
386.6	1.5152e-07
386.8	1.3317e-07
387.0	1.1704e-07
387.2	1.0287e-07
387.4	9.0411e-08
387.6	7.9462e-08
387.8	6.9839e-08
388.0	6.1382e-08
388.2	5.3948e-08
388.4	4.7415e-08
388.6	4.1673e-08
388.8	3.6627e-08
389.0	3.2191e-08
389.2	2.8293e-08
389.4	2.7728e-08
389.6	2.8047e-08
389.8	2.8369e-08
390.0	2.8695e-08
390.2	2.9026e-08
390.4	2.9359e-08
390.6	2.9697e-08
390.8	3.0039e-08
391.0	3.0384e-08
391.2	3.0734e-08
391.4	3.1087e-08
391.6	3.1445e-08
391.8	3.1806e-08
392.0	3.2172e-08
392.2	2.913e-08
392.4	2.6376e-08
392.6	2.3882e-08
392.8	2.1623e-08
393.0	2.0925e-08
393.2	2.0703e-08
393.4	2.0483e-08
393.6	2.0265e-08
393.8	2.005e-08
394.0	1.9837e-08
394.2	1.9626e-08
394.4	1.9418e-08
394.6	1.9211e-08
394.8	1.9007e-08
395.0	1.8805e-08
395.2	1.8605e-08
395.4	1.8408e-08
395.6	1.8212e-08
395.8	1.8019e-08
396.0	1.7827e-08
396.2	1.7638e-08
396.4	1.7451e-08
396.6	1.7269e-08
396.8	1.7108e-08
397.0	1.6949e-08
397.2	1.6791e-08
397.4	1.6635e-08
397.6	1.648e-08
397.8	1.6326e-08
398.0	1.6174e-08
398.2	1.6023e-08
398.4	1.5874e-08
398.6	1.5726e-08
398.8	1.558e-08
399.0	1.5434e-08
399.2	1.5291e-08
399.4	1.5148e-08
399.6	1.5007e-08
399.8	1.4867e-08
400.0	1.4729e-08
400.2	1.4591e-08
400.4	1.4456e-08
400.6	1.4323e-08
400.8	1.4191e-08
401.0	1.406e-08
401.2	1.393e-08
401.4	1.3802e-08
401.6	1.3675e-08
401.8	1.3549e-08
402.0	1.3424e-08
402.2	1.33e-08
402.4	1.3177e-08
402.6	1.3056e-08
402.8	1.2935e-08
403.0	1.2816e-08
403.2	1.2698e-08
403.4	1.2581e-08
403.6	1.2465e-08
403.8	1.235e-08
404.0	1.2237e-08
404.2	1.2135e-08
404.4	1.2034e-08
404.6	1.1934e-08
404.8	1.1834e-08
405.0	1.1736e-08
405.2	1.1638e-08
405.4	1.1541e-08
405.6	1.1445e-08
405.8	1.1349e-08
406.0	1.1255e-08
406.2	1.1161e-08
406.4	1.1068e-08
406.6	1.0976e-08
406.8	1.0885e-08
407.0	1.0794e-08
407.2	1.0704e-08
407.4	1.0615e-08
407.6	1.0526e-08
407.8	1.1141e-08
408.0	1.2522e-08
408.2	1.4074e-08
408.4	1.5818e-08
408.6	1.7778e-08
408.8	1.9982e-08
409.0	2.2458e-08
409.2	2.5242e-08
409.4	2.837e-08
409.6	3.1886e-08
409.8	3.5838e-08
410.0	4.028e-08
410.2	4.5272e-08
410.4	5.0883e-08
410.6	5.719e-08
410.8	6.4278e-08
411.0	7.2244e-08
411.2	8.1198e-08
411.4	9.1262e-08
411.6	8.648e-08
411.8	8.1808e-08
412.0	7.7388e-08
412.2	7.3207e-08
412.4	6.9252e-08
412.6	6.551e-08
412.8	6.1971e-08
413.0	5.8623e-08
413.2	5.5455e-08
413.4	5.2459e-08
413.6	4.9625e-08
413.8	4.6944e-08
414.0	4.4408e-08
414.2	4.2008e-08
414.4	3.9739e-08
414.6	3.7592e-08
414.8	3.5561e-08
415.0	3.364e-08
415.2	3.2583e-08
415.4	3.2412e-08
415.6	3.2243e-08
415.8	3.2074e-08
416.0	3.1906e-08
416.2	3.1738e-08
416.4	3.1572e-08
416.6	3.1407e-08
416.8	3.1242e-08
417.0	3.1078e-08
417.2	3.0916e-08
417.4	3.0754e-08
417.6	3.0592e-08
417.8	3.0432e-08
418.0	3.0273e-08
418.2	3.0114e-08
418.4	2.9956e-08
418.6	2.9799e-08
418.8	2.9643e-08
419.0	2.8492e-08
419.2	2.7346e-08
419.4	2.6246e-08
419.6	2.519e-08
419.8	2.4177e-08
420.0	2.3205e-08
420.2	2.2271e-08
420.4	2.1376e-08
420.6	2.0516e-08
420.8	1.9691e-08
421.0	1.8899e-08
421.2	1.8139e-08
421.4	1.7409e-08
421.6	1.6709e-08
421.8	1.6037e-08
422.0	1.5392e-08
422.2	1.4773e-08
422.4	1.4179e-08
422.6	1.4995e-08
422.8	1.6366e-08
423.0	1.7863e-08
423.2	1.9496e-08
423.4	2.1279e-08
423.6	2.3224e-08
423.8	2.5348e-08
424.0	2.7665e-08
424.2	3.0195e-08
424.4	3.2955e-08
424.6	3.5968e-08
424.8	3.9257e-08
425.0	4.2846e-08
425.2	4.6764e-08
425.4	5.104e-08
425.6	5.5706e-08
425.8	6.08e-08
426.0	6.5979e-08
426.2	6.3395e-08
426.4	6.0913e-08
426.6	5.8527e-08
426.8	5.6235e-08
427.0	5.4033e-08
427.2	5.1917e-08
427.4	4.9884e-08
427.6	4.793e-08
427.8	4.6053e-08
428.0	4.425e-08
428.2	4.2517e-08
428.4	4.0852e-08
428.6	3.9252e-08
428.8	3.7715e-08
429.0	3.6238e-08
429.2	3.4819e-08
429.4	3.3455e-08
429.6	3.2145e-08
429.8	3.0886e-08
430.0	2.9677e-08
430.2	2.8514e-08
430.4	2.7398e-08
430.6	2.6325e-08
430.8	2.5294e-08
431.0	2.4349e-08
431.2	2.4386e-08
431.4	2.4423e-08
431.6	2.446e-08
431.8	2.4498e-08
432.0	2.4535e-08
432.2	2.4572e-08
432.4	2.461e-08
432.6	2.4647e-08
432.8	2.4685e-08
433.0	2.4723e-08
433.2	2.476e-08
433.4	2.4798e-08
433.6	2.4836e-08
433.8	2.4874e-08
434.0	2.4912e-08
434.2	2.495e-08
434.4	2.4988e-08
434.6	2.5026e-08
434.8	2.5064e-08
435.0	2.5102e-08
435.2	2.5141e-08
435.4	2.5179e-08
435.6	2.5217e-08
435.8	2.5256e-08
436.0	2.5276e-08
436.2	2.4871e-08
436.4	2.4473e-08
436.6	2.408e-08
436.8	2.3694e-08
437.0	2.3315e-08
437.2	2.2941e-08
437.4	2.2573e-08
437.6	2.2211e-08
437.8	2.1855e-08
438.0	2.1505e-08
438.2	2.116e-08
438.4	2.0821e-08
438.6	2.0488e-08
438.8	2.0159e-08
439.0	1.9836e-08
439.2	1.9518e-08
439.4	1.9205e-08
439.6	1.8898e-08
439.8	1.8595e-08
440.0	1.8297e-08
440.2	1.8003e-08
440.4	1.7715e-08
440.6	1.7431e-08
440.8	1.7151e-08
441.0	1.6921e-08
441.2	1.8168e-08
441.4	1.9507e-08
441.6	2.0945e-08
441.8	2.2489e-08
442.0	2.4147e-08
442.2	2.5927e-08
442.4	2.7838e-08
442.6	2.989e-08
442.8	3.2093e-08
443.0	3.4459e-08
443.2	3.6999e-08
443.4	3.9726e-08
443.6	4.2654e-08
443.8	4.5799e-08
444.0	4.9174e-08
444.2	5.2799e-08
444.4	5.6691e-08
444.6	6.087e-08
444.8	6.5357e-08
445.0	7.0174e-08
445.2	7.5347e-08
445.4	8.0901e-08
445.6	8.6864e-08
445.8	9.3267e-08
446.0	9.9824e-08
446.2	9.1393e-08
446.4	8.3674e-08
446.6	7.6607e-08
446.8	7.0137e-08
447.0	6.4214e-08
447.2	5.8791e-08
447.4	5.3825e-08
447.6	4.9279e-08
447.8	4.5117e-08
448.0	4.1307e-08
448.2	3.7818e-08
448.4	3.4624e-08
448.6	3.17e-08
448.8	2.9023e-08
449.0	2.6572e-08
449.2	2.4327e-08
449.4	2.2273e-08
449.6	2.0392e-08
449.8	1.867e-08
450.0	1.7093e-08
450.2	1.5649e-08
450.4	1.4327e-08
450.6	1.3117e-08
450.8	1.201e-08
451.0	1.1042e-08
451.2	1.1984e-08
451.4	1.3007e-08
451.6	1.4117e-08
451.8	1.5322e-08
452.0	1.6629e-08
452.2	1.8048e-08
452.4	1.9588e-08
452.6	2.126e-08
452.8	2.3074e-08
453.0	2.5043e-08
453.2	2.718e-08
453.4	2.95e-08
453.6	3.2017e-08
453.8	3.4749e-08
454.0	3.7714e-08
454.2	4.0933e-08
454.4	4.4426e-08
454.6	4.8217e-08
454.8	5.2331e-08
455.0	5.6797e-08
455.2	6.1644e-08
455.4	6.6904e-08
455.6	7.2613e-08
455.8	7.8809e-08
456.0	8.5155e-08
456.2	7.9674e-08
456.4	7.4546e-08
456.6	6.9748e-08
456.8	6.5259e-08
457.0	6.1058e-08
457.2	5.7129e-08
457.4	5.3452e-08
457.6	5.0011e-08
457.8	4.6793e-08
458.0	4.3781e-08
458.2	4.0963e-08
458.4	3.8327e-08
458.6	3.586e-08
458.8	3.3552e-08
459.0	3.1392e-08
459.2	2.9372e-08
459.4	2.7481e-08
459.6	2.5713e-08
459.8	2.4058e-08
460.0	2.2509e-08
460.2	2.106e-08
460.4	1.9705e-08
460.6	1.8437e-08
460.8	1.725e-08
461.0	1.6185e-08
461.2	1.7408e-08
461.4	1.8724e-08
461.6	2.014e-08
461.8	2.1662e-08
462.0	2.33e-08
462.2	2.5061e-08
462.4	2.6955e-08
462.6	2.8993e-08
462.8	3.1185e-08
463.0	3.3542e-08
463.2	3.6078e-08
463.4	3.8805e-08
463.6	4.1739e-08
463.8	4.4894e-08
464.0	4.8287e-08
464.2	5.1938e-08
464.4	5.5864e-08
464.6	6.0087e-08
464.8	6.4629e-08
465.0	6.9514e-08
465.2	7.4769e-08
465.4	8.0421e-08
465.6	8.6501e-08
465.8	9.304e-08
466.0	1.0005e-07
466.2	1.0467e-07
466.4	1.0951e-07
466.6	1.1457e-07
466.8	1.1986e-07
467.0	1.254e-07
467.2	1.3119e-07
467.4	1.3726e-07
467.6	1.436e-07
467.8	1.5024e-07
468.0	1.5718e-07
468.2	1.6444e-07
468.4	1.7204e-07
468.6	1.7999e-07
468.8	1.8831e-07
469.0	1.9701e-07
469.2	2.0612e-07
469.4	2.1564e-07
469.6	2.2561e-07
469.8	2.3604e-07
470.0	2.4694e-07
470.2	2.5836e-07
470.4	2.703e-07
470.6	2.8279e-07
470.8	2.9586e-07
471.0	3.0933e-07
471.2	3.1695e-07
471.4	3.2476e-07
471.6	3.3276e-07
471.8	3.4096e-07
472.0	3.4936e-07
472.2	3.5796e-07
472.4	3.6678e-07
472.6	3.7581e-07
472.8	3.8507e-07
473.0	3.9455e-07
473.2	4.0427e-07
473.4	4.1423e-07
473.6	4.2443e-07
473.8	4.3489e-07
474.0	4.456e-07
474.2	4.5658e-07
474.4	4.6782e-07
474.6	4.7935e-07
474.8	4.9115e-07
475.0	5.0325e-07
475.2	5.1565e-07
475.4	5.2835e-07
475.6	5.4136e-07
475.8	5.547e-07
476.0	5.6788e-07
476.2	5.709e-07
476.4	5.7395e-07
476.6	5.7701e-07
476.8	5.8008e-07
477.0	5.8317e-07
477.2	5.8628e-07
477.4	5.8941e-07
477.6	5.9255e-07
477.8	5.9571e-07
478.0	5.9888e-07
478.2	6.0208e-07
478.4	6.0528e-07
478.6	6.0851e-07
478.8	6.1175e-07
479.0	6.1502e-07
479.2	6.1829e-07
479.4	6.2159e-07
479.6	5.5268e-07
479.8	4.0872e-07
480.0	3.0226e-07
480.2	2.2353e-07
480.4	1.6531e-07
480.6	1.2225e-07
480.8	9.041e-08
481.0	6.6861e-08
481.2	6.5419e-08
481.4	1.3833e-07
481.6	2.9733e-07
481.8	3.0922e-07
482.0	7.4372e-08
482.2	2.3176e-07
482.4	1.287e-07
482.6	1.3573e-07
482.8	1.8663e-07
483.0	3.1584e-07
483.2	3.7985e-07
483.4	3.7812e-07
483.6	1.2439e-07
483.8	1.723e-07
484.0	3.0801e-07
484.2	2.1008e-07
484.4	6.1379e-08
484.6	6.0976e-08
484.8	2.5929e-07
485.0	8.6039e-08
485.2	1.9129e-07
485.4	2.8529e-07
485.6	9.5866e-08
485.8	5.9029e-08
486.0	5.8774e-08
486.2	1.2058e-07
486.4	4.3209e-07
486.6	3.9899e-07
486.8	3.2438e-07
487.0	3.1273e-07
487.2	6.6543e-08
487.4	1.8219e-07
487.6	9.0027e-08
487.8	5.6933e-08
488.0	5.6679e-08
488.2	1.2524e-07
488.4	2.9797e-07
488.6	3.9003e-07
488.8	2.5746e-07
489.0	2.3548e-07
489.2	2.2081e-07
489.4	2.1971e-07
489.6	1.8633e-07
489.8	6.174e-08
490.0	1.6892e-07
490.2	3.794e-07
490.4	3.8454e-07
490.6	4.2559e-07
490.8	6.6965e-07
491.0	8.266e-07
491.2	9.3528e-07
491.4	1.2729e-06
491.6	1.3986e-06
491.8	1.8472e-06
492.0	2.5313e-06
492.2	3.2291e-06
492.4	4.4851e-06
492.6	6.479e-06
492.8	8.7157e-06
493.0	1.1905e-05
493.2	1.5864e-05
493.4	2.1283e-05
493.6	2.9773e-05
493.8	4.269e-05
494.0	6.1752e-05
494.2	8.9005e-05
494.4	1.284e-04
494.6	1.8743e-04
494.8	2.7805e-04
495.0	4.1604e-04
495.2	6.3432e-04
495.4	0.00104
495.6	0.0016
495.8	0.00254
496.0	0.0041
496.2	0.00678
496.4	0.01156
496.6	0.01977
496.8	0.03361
497.0	0.06105
497.2	0.11291
497.4	0.20839
497.6	0.36739
497.8	0.58103
498.0	0.83079
498.2	0.93096
498.4	0.9652
498.6	0.97109
498.8	0.97062
499.0	0.97312
499.2	0.9772
499.4	0.98246
499.6	0.98706
499.8	0.98987
500.0	0.98928
500.2	0.98658
500.4	0.98563
500.6	0.98555
500.8	0.98482
501.0	0.98455
501.2	0.9848
501.4	0.98498
501.6	0.98544
501.8	0.98539
502.0	0.98543
502.2	0.98462
502.4	0.98441
502.6	0.98417
502.8	0.98371
503.0	0.98412
503.2	0.98329
503.4	0.98417
503.6	0.98524
503.8	0.98589
504.0	0.98755
504.2	0.98752
504.4	0.98843
504.6	0.98815
504.8	0.98933
505.0	0.98845
505.2	0.988
505.4	0.98794
505.6	0.98767
505.8	0.9865
506.0	0.98714
506.2	0.98717
506.4	0.98791
506.6	0.98791
506.8	0.98859
507.0	0.98834
507.2	0.98823
507.4	0.98708
507.6	0.98655
507.8	0.98494
508.0	0.98386
508.2	0.98136
508.4	0.97923
508.6	0.97841
508.8	0.97701
509.0	0.97639
509.2	0.97711
509.4	0.97742
509.6	0.97921
509.8	0.98146
510.0	0.98376
510.2	0.98655
510.4	0.98867
510.6	0.99009
510.8	0.99135
511.0	0.99197
511.2	0.99117
511.4	0.98972
511.6	0.98834
511.8	0.98741
512.0	0.98675
512.2	0.98571
512.4	0.98582
512.6	0.98681
512.8	0.98856
513.0	0.98982
513.2	0.99157
513.4	0.99293
513.6	0.99428
513.8	0.99416
514.0	0.99454
514.2	0.99327
514.4	0.99155
514.6	0.98986
514.8	0.98791
515.0	0.98586
515.2	0.98536
515.4	0.98475
515.6	0.98558
515.8	0.98741
516.0	0.98915
516.2	0.9907
516.4	0.99309
516.6	0.9946
516.8	0.99563
517.0	0.99469
517.2	0.99435
517.4	0.99257
517.6	0.99197
517.8	0.9904
518.0	0.98818
518.2	0.98728
518.4	0.98547
518.6	0.98455
518.8	0.98252
519.0	0.98045
519.2	0.97742
519.4	0.97527
519.6	0.97448
519.8	0.97434
520.0	0.97605
520.2	0.98002
520.4	0.98497
520.6	0.98904
520.8	0.99055
521.0	0.9902
521.2	0.98577
521.4	0.98109
521.6	0.97895
521.8	0.97959
522.0	0.98326
522.2	0.98624
522.4	0.98432
522.6	0.97805
522.8	0.97506
523.0	0.94623
523.2	0.7767
523.4	0.43309
523.6	0.16602
523.8	0.05708
524.0	0.02182
524.2	0.00882
524.4	0.00316
524.6	0.00142
524.8	7.0413e-04
525.0	3.7809e-04
525.2	2.1776e-04
525.4	1.302e-04
525.6	5.3168e-05
525.8	2.6176e-05
526.0	1.5105e-05
526.2	8.9334e-06
526.4	5.611e-06
526.6	3.5242e-06
526.8	2.1241e-06
527.0	1.3363e-06
527.2	9.4691e-07
527.4	6.7101e-07
527.6	4.6677e-07
527.8	3.232e-07
528.0	2.4879e-07
528.2	2.4823e-07
528.4	2.4757e-07
528.6	2.4688e-07
528.8	2.3781e-07
529.0	2.0857e-07
529.2	1.8292e-07
529.4	1.9055e-07
529.6	1.9437e-07
529.8	1.6501e-07
530.0	1.4009e-07
530.2	1.3074e-07
530.4	1.2532e-07
530.6	1.2375e-07
530.8	1.3272e-07
531.0	1.3465e-07
531.2	1.3428e-07
531.4	1.3854e-07
531.6	1.5786e-07
531.8	1.7987e-07
532.0	1.3049e-07
532.2	1.0298e-07
532.4	1.4945e-07
532.6	2.1689e-07
532.8	2.0832e-07
533.0	1.7688e-07
533.2	1.5423e-07
533.4	1.4509e-07
533.6	6.6344e-08
533.8	2.5472e-08
534.0	1.7518e-08
534.2	4.8518e-08
534.4	1.3438e-07
534.6	1.1241e-07
534.8	7.4067e-08
535.0	6.2949e-08
535.2	5.3499e-08
535.4	7.2119e-08
535.6	1.1158e-07
535.8	1.5211e-07
536.0	1.4324e-07
536.2	9.34e-08
536.4	5.5555e-08
536.6	4.4101e-08
536.8	7.0971e-08
537.0	1.1421e-07
537.2	6.8133e-08
537.4	4.3801e-08
537.6	7.3305e-08
537.8	1.2268e-07
538.0	1.0161e-07
538.2	6.78e-08
538.4	6.76e-08
538.6	8.7358e-08
538.8	8.7136e-08
539.0	8.5526e-08
539.2	8.0365e-08
539.4	7.5516e-08
539.6	8.3153e-08
539.8	9.6262e-08
540.0	1.1144e-07
540.2	1.2901e-07
540.4	1.4935e-07
540.6	1.7289e-07
540.8	2.0015e-07
541.0	2.2739e-07
541.2	2.2354e-07
541.4	2.1976e-07
541.6	2.1605e-07
541.8	2.1239e-07
542.0	2.088e-07
542.2	2.0527e-07
542.4	2.018e-07
542.6	1.9838e-07
542.8	1.9503e-07
543.0	1.9173e-07
543.2	1.8849e-07
543.4	1.853e-07
543.6	1.8217e-07
543.8	1.7908e-07
544.0	1.7606e-07
544.2	1.7308e-07
544.4	1.7015e-07
544.6	1.6806e-07
544.8	1.6668e-07
545.0	1.6531e-07
545.2	1.6395e-07
545.4	1.6261e-07
545.6	1.6127e-07
545.8	1.5995e-07
546.0	1.5864e-07
546.2	1.5734e-07
546.4	1.5605e-07
546.6	1.5477e-07
546.8	1.535e-07
547.0	1.5224e-07
547.2	1.5099e-07
547.4	1.4975e-07
547.6	1.4852e-07
547.8	1.473e-07
548.0	1.461e-07
548.2	1.449e-07
548.4	1.4371e-07
548.6	1.4253e-07
548.8	1.4136e-07
549.0	1.402e-07
549.2	1.3905e-07
549.4	1.3794e-07
549.6	1.3768e-07
549.8	1.3742e-07
550.0	1.3716e-07
550.2	1.369e-07
550.4	1.3664e-07
550.6	1.3638e-07
550.8	1.3612e-07
551.0	1.3586e-07
551.2	1.356e-07
551.4	1.3535e-07
551.6	1.3509e-07
551.8	1.3483e-07
552.0	1.3458e-07
552.2	1.3432e-07
552.4	1.3407e-07
552.6	1.3381e-07
552.8	1.3356e-07
553.0	1.3331e-07
553.2	1.3305e-07
553.4	1.328e-07
553.6	1.3255e-07
553.8	1.323e-07
554.0	1.3205e-07
554.2	1.318e-07
554.4	1.3086e-07
554.6	1.2936e-07
554.8	1.2788e-07
555.0	1.2641e-07
555.2	1.2496e-07
555.4	1.2353e-07
555.6	1.2211e-07
555.8	1.2071e-07
556.0	1.1932e-07
556.2	1.1795e-07
556.4	1.166e-07
556.6	1.1526e-07
556.8	1.1394e-07
557.0	1.1263e-07
557.2	1.1134e-07
557.4	1.1006e-07
557.6	1.088e-07
557.8	1.0755e-07
558.0	1.0632e-07
558.2	1.051e-07
558.4	1.0389e-07
558.6	1.027e-07
558.8	1.0152e-07
559.0	1.0036e-07
559.2	9.9273e-08
559.4	9.9645e-08
559.6	1.0002e-07
559.8	1.0039e-07
560.0	1.0077e-07
560.2	1.0115e-07
560.4	1.0153e-07
560.6	1.0191e-07
560.8	1.0229e-07
561.0	1.0267e-07
561.2	1.0306e-07
561.4	1.0344e-07
561.6	1.0383e-07
561.8	1.0422e-07
562.0	1.0461e-07
562.2	1.05e-07
562.4	1.0539e-07
562.6	1.0579e-07
562.8	1.0618e-07
563.0	1.0658e-07
563.2	1.0698e-07
563.4	1.0738e-07
563.6	1.0778e-07
563.8	1.0819e-07
564.0	1.0859e-07
564.2	1.0795e-07
564.4	1.0647e-07
564.6	1.0501e-07
564.8	1.0357e-07
565.0	1.0214e-07
565.2	1.0074e-07
565.4	9.9358e-08
565.6	9.7994e-08
565.8	9.6648e-08
566.0	9.5321e-08
566.2	9.4012e-08
566.4	9.2721e-08
566.6	9.1448e-08
566.8	9.0192e-08
567.0	8.8954e-08
567.2	8.7732e-08
567.4	8.6528e-08
567.6	8.5339e-08
567.8	8.4168e-08
568.0	8.3012e-08
568.2	8.1872e-08
568.4	8.0748e-08
568.6	7.9639e-08
568.8	7.8545e-08
569.0	7.7502e-08
569.2	7.7219e-08
569.4	7.6937e-08
569.6	7.6656e-08
569.8	7.6376e-08
570.0	7.6097e-08
570.2	7.5819e-08
570.4	7.5542e-08
570.6	7.5266e-08
570.8	7.4991e-08
571.0	7.4717e-08
571.2	7.4444e-08
571.4	7.4172e-08
571.6	7.3901e-08
571.8	7.3631e-08
572.0	7.3362e-08
572.2	7.3094e-08
572.4	7.2827e-08
572.6	7.2561e-08
572.8	7.2296e-08
573.0	7.2032e-08
573.2	7.1769e-08
573.4	7.1506e-08
573.6	7.1245e-08
573.8	7.0985e-08
574.0	7.0629e-08
574.2	7.0194e-08
574.4	6.9762e-08
574.6	6.9333e-08
574.8	6.8906e-08
575.0	6.8482e-08
575.2	6.806e-08
575.4	6.7641e-08
575.6	6.7225e-08
575.8	6.6811e-08
576.0	6.64e-08
576.2	6.5991e-08
576.4	6.5585e-08
576.6	6.5181e-08
576.8	6.478e-08
577.0	6.4381e-08
577.2	6.3985e-08
577.4	6.3591e-08
577.6	6.3199e-08
577.8	6.281e-08
578.0	6.2424e-08
578.2	6.204e-08
578.4	6.1658e-08
578.6	6.1278e-08
578.8	6.0937e-08
579.0	6.1355e-08
579.2	6.1776e-08
579.4	6.22e-08
579.6	6.2627e-08
579.8	6.3057e-08
580.0	6.349e-08
580.2	6.3925e-08
580.4	6.4364e-08
580.6	6.4806e-08
580.8	6.5251e-08
581.0	6.5699e-08
581.2	6.615e-08
581.4	6.6604e-08
581.6	6.7061e-08
581.8	6.7521e-08
582.0	6.7984e-08
582.2	6.8451e-08
582.4	6.8921e-08
582.6	6.9394e-08
582.8	6.987e-08
583.0	7.035e-08
583.2	7.0833e-08
583.4	7.1319e-08
583.6	7.1808e-08
583.8	7.1911e-08
584.0	7.1688e-08
584.2	7.1466e-08
584.4	7.1244e-08
584.6	7.1024e-08
584.8	7.0804e-08
585.0	7.0585e-08
585.2	7.0366e-08
585.4	7.0148e-08
585.6	6.9931e-08
585.8	6.9714e-08
586.0	6.9498e-08
586.2	6.9283e-08
586.4	6.9068e-08
586.6	6.8854e-08
586.8	6.8641e-08
587.0	6.8429e-08
587.2	6.8217e-08
587.4	6.8005e-08
587.6	6.7795e-08
587.8	6.7585e-08
588.0	6.7375e-08
588.2	6.7167e-08
588.4	6.6959e-08
588.6	6.6764e-08
588.8	6.6927e-08
589.0	6.7089e-08
589.2	6.7252e-08
589.4	6.7416e-08
589.6	6.758e-08
589.8	6.7744e-08
590.0	6.7909e-08
590.2	6.8074e-08
590.4	6.8239e-08
590.6	6.8405e-08
590.8	6.8571e-08
591.0	6.8738e-08
591.2	6.8905e-08
591.4	6.9073e-08
591.6	6.9241e-08
591.8	6.9409e-08
592.0	6.9578e-08
592.2	6.9747e-08
592.4	6.9916e-08
592.6	7.0086e-08
592.8	7.0257e-08
593.0	7.0427e-08
593.2	7.0599e-08
593.4	7.0852e-08
593.6	7.1294e-08
593.8	7.1738e-08
594.0	7.2186e-08
594.2	7.2636e-08
594.4	7.3089e-08
594.6	7.3544e-08
594.8	7.4003e-08
595.0	7.4464e-08
595.2	7.4928e-08
595.4	7.5396e-08
595.6	7.5866e-08
595.8	7.6339e-08
596.0	7.6815e-08
596.2	7.7293e-08
596.4	7.7775e-08
596.6	7.826e-08
596.8	7.8748e-08
597.0	7.7507e-08
597.2	7.5797e-08
597.4	7.4124e-08
597.6	7.2489e-08
597.8	7.089e-08
598.0	6.9326e-08
598.2	6.7796e-08
598.4	6.6301e-08
598.6	6.4838e-08
598.8	6.3407e-08
599.0	6.2009e-08
599.2	6.0641e-08
599.4	5.9303e-08
599.6	5.7994e-08
599.8	5.6715e-08
600.0	5.5464e-08
600.2	5.4397e-08
600.4	5.9701e-08
600.6	6.5522e-08
600.8	7.1911e-08
601.0	7.8923e-08
601.2	8.6619e-08
601.4	9.5065e-08
601.6	1.0433e-07
601.8	1.1451e-07
602.0	1.2567e-07
602.2	1.3793e-07
602.4	1.5138e-07
602.6	1.6614e-07
602.8	1.8234e-07
603.0	2.0012e-07
603.2	2.1963e-07
603.4	2.4105e-07
603.6	2.4516e-07
603.8	2.4602e-07
604.0	2.4689e-07
604.2	2.4775e-07
604.4	2.4862e-07
604.6	2.4949e-07
604.8	2.5037e-07
605.0	2.5125e-07
605.2	2.5213e-07
605.4	2.496e-07
605.6	2.4566e-07
605.8	2.4179e-07
606.0	2.3798e-07
606.2	2.3423e-07
606.4	2.3053e-07
606.6	2.269e-07
606.8	2.2332e-07
607.0	2.198e-07
607.2	2.1398e-07
607.4	2.0646e-07
607.6	1.9919e-07
607.8	1.9219e-07
608.0	1.8543e-07
608.2	1.8736e-07
608.4	1.893e-07
608.6	1.9127e-07
608.8	1.9311e-07
609.0	1.9212e-07
609.2	1.9114e-07
609.4	1.9016e-07
609.6	1.8919e-07
609.8	1.8823e-07
610.0	1.8727e-07
610.2	1.8631e-07
610.4	1.8536e-07
610.6	1.8441e-07
610.8	1.8347e-07
611.0	1.8253e-07
611.2	1.816e-07
611.4	1.8068e-07
611.6	1.7975e-07
611.8	1.7884e-07
612.0	1.7792e-07
612.2	1.7701e-07
612.4	1.7611e-07
612.6	1.7463e-07
612.8	1.7286e-07
613.0	1.7111e-07
613.2	1.6938e-07
613.4	1.6767e-07
613.6	1.6597e-07
613.8	1.6429e-07
614.0	1.6263e-07
614.2	1.6098e-07
614.4	1.5935e-07
614.6	1.5774e-07
614.8	1.5614e-07
615.0	1.5456e-07
615.2	1.53e-07
615.4	1.5145e-07
615.6	1.4992e-07
615.8	1.484e-07
616.0	1.469e-07
616.2	1.4609e-07
616.4	1.4706e-07
616.6	1.4803e-07
616.8	1.4902e-07
617.0	1.5001e-07
617.2	1.5101e-07
617.4	1.5201e-07
617.6	1.5302e-07
617.8	1.5404e-07
618.0	1.5507e-07
618.2	1.561e-07
618.4	1.5713e-07
618.6	1.5818e-07
618.8	1.5923e-07
619.0	1.6029e-07
619.2	1.6136e-07
619.4	1.6243e-07
619.6	1.6351e-07
619.8	1.646e-07
620.0	1.6243e-07
620.2	1.5996e-07
620.4	1.5752e-07
620.6	1.5512e-07
620.8	1.5276e-07
621.0	1.5043e-07
621.2	1.4814e-07
621.4	1.4589e-07
621.6	1.4366e-07
621.8	1.4148e-07
622.0	1.3932e-07
622.2	1.372e-07
622.4	1.3511e-07
622.6	1.3305e-07
622.8	1.3103e-07
623.0	1.2903e-07
623.2	1.2707e-07
623.4	1.2513e-07
623.6	1.2459e-07
623.8	1.252e-07
624.0	1.258e-07
624.2	1.2642e-07
624.4	1.2703e-07
624.6	1.2765e-07
624.8	1.2827e-07
625.0	1.2889e-07
625.2	1.2952e-07
625.4	1.3015e-07
625.6	1.3078e-07
625.8	1.3142e-07
626.0	1.3206e-07
626.2	1.327e-07
626.4	1.3335e-07
626.6	1.34e-07
626.8	1.3465e-07
627.0	1.353e-07
627.2	1.3569e-07
627.4	1.3497e-07
627.6	1.3424e-07
627.8	1.3353e-07
628.0	1.3281e-07
628.2	1.321e-07
628.4	1.314e-07
628.6	1.3069e-07
628.8	1.3e-07
629.0	1.293e-07
629.2	1.2861e-07
629.4	1.2792e-07
629.6	1.2724e-07
629.8	1.2656e-07
630.0	1.2588e-07
630.2	1.2521e-07
630.4	1.2454e-07
630.6	1.2387e-07
630.8	1.2321e-07
631.0	1.2274e-07
631.2	1.223e-07
631.4	1.2186e-07
631.6	1.2142e-07
631.8	1.2098e-07
632.0	1.2055e-07
632.2	1.2011e-07
632.4	1.1968e-07
632.6	1.1925e-07
632.8	1.1882e-07
633.0	1.1839e-07
633.2	1.1797e-07
633.4	1.1754e-07
633.6	1.1712e-07
633.8	1.167e-07
634.0	1.1628e-07
634.2	1.1586e-07
634.4	1.1544e-07
634.6	1.1411e-07
634.8	1.1195e-07
635.0	1.0984e-07
635.2	1.0777e-07
635.4	1.0574e-07
635.6	1.0375e-07
635.8	1.0179e-07
636.0	9.9874e-08
636.2	9.7991e-08
636.4	9.6143e-08
636.6	9.4331e-08
636.8	9.2553e-08
637.0	9.0808e-08
637.2	8.9096e-08
637.4	8.7416e-08
637.6	8.5768e-08
637.8	8.4151e-08
638.0	8.2565e-08
638.2	8.1494e-08
638.4	8.2381e-08
638.6	8.3278e-08
638.8	8.4185e-08
639.0	8.5101e-08
639.2	8.6028e-08
639.4	8.6964e-08
639.6	8.7911e-08
639.8	8.8868e-08
640.0	8.9836e-08
640.2	9.0814e-08
640.4	9.1802e-08
640.6	9.2802e-08
640.8	9.3812e-08
641.0	9.4833e-08
641.2	9.5866e-08
641.4	9.691e-08
641.6	9.7965e-08
641.8	9.9031e-08
642.0	9.8029e-08
642.2	9.6786e-08
642.4	9.5559e-08
642.6	9.4347e-08
642.8	9.3151e-08
643.0	9.1969e-08
643.2	9.0803e-08
643.4	8.9652e-08
643.6	8.8515e-08
643.8	8.7392e-08
644.0	8.6284e-08
644.2	8.519e-08
644.4	8.411e-08
644.6	8.3043e-08
644.8	8.199e-08
645.0	8.095e-08
645.2	7.9924e-08
645.4	7.891e-08
645.6	7.8001e-08
645.8	7.7165e-08
646.0	7.6338e-08
646.2	7.552e-08
646.4	7.471e-08
646.6	7.3909e-08
646.8	7.3117e-08
647.0	7.2334e-08
647.2	7.1558e-08
647.4	7.0791e-08
647.6	7.0033e-08
647.8	6.9282e-08
648.0	6.854e-08
648.2	6.7805e-08
648.4	6.7078e-08
648.6	6.6359e-08
648.8	6.5648e-08
649.0	6.4944e-08
649.2	6.4418e-08
649.4	6.4289e-08
649.6	6.4161e-08
649.8	6.4033e-08
650.0	6.3905e-08
650.2	6.3777e-08
650.4	6.365e-08
650.6	6.3523e-08
650.8	6.3396e-08
651.0	6.327e-08
651.2	6.3144e-08
651.4	6.3017e-08
651.6	6.2892e-08
651.8	6.2766e-08
652.0	6.2641e-08
652.2	6.2516e-08
652.4	6.2391e-08
652.6	6.2267e-08
652.8	6.2102e-08
653.0	5.9978e-08
653.2	5.7927e-08
653.4	5.5946e-08
653.6	5.4033e-08
653.8	5.2186e-08
654.0	5.0401e-08
654.2	4.8678e-08
654.4	4.7013e-08
654.6	4.5406e-08
654.8	4.3853e-08
655.0	4.2354e-08
655.2	4.0905e-08
655.4	3.9507e-08
655.6	3.8156e-08
655.8	3.6851e-08
656.0	3.5591e-08
656.2	3.4374e-08
656.4	3.3198e-08
656.6	3.2624e-08
656.8	3.2245e-08
657.0	3.1871e-08
657.2	3.1501e-08
657.4	3.1135e-08
657.6	3.0774e-08
657.8	3.0417e-08
658.0	3.0064e-08
658.2	2.9715e-08
658.4	2.937e-08
658.6	2.9029e-08
658.8	2.8692e-08
659.0	2.8359e-08
659.2	2.8029e-08
659.4	2.7704e-08
659.6	2.7382e-08
659.8	2.7065e-08
660.0	2.675e-08
660.2	2.6773e-08
660.4	2.7146e-08
660.6	2.7525e-08
660.8	2.7909e-08
661.0	2.8298e-08
661.2	2.8693e-08
661.4	2.9093e-08
661.6	2.9499e-08
661.8	2.991e-08
662.0	3.0327e-08
662.2	3.0751e-08
662.4	3.1179e-08
662.6	3.1614e-08
662.8	3.2055e-08
663.0	3.2502e-08
663.2	3.2956e-08
663.4	3.3416e-08
663.6	3.3882e-08
663.8	3.4436e-08
664.0	3.5264e-08
664.2	3.6112e-08
664.4	3.698e-08
664.6	3.7869e-08
664.8	3.878e-08
665.0	3.9712e-08
665.2	4.0667e-08
665.4	4.1644e-08
665.6	4.2646e-08
665.8	4.3671e-08
666.0	4.4721e-08
666.2	4.5796e-08
666.4	4.6897e-08
666.6	4.8025e-08
666.8	4.9179e-08
667.0	5.0362e-08
667.2	5.1572e-08
667.4	5.2793e-08
667.6	5.0285e-08
667.8	4.7896e-08
668.0	4.562e-08
668.2	4.3452e-08
668.4	4.1388e-08
668.6	3.9421e-08
668.8	3.7548e-08
669.0	3.5764e-08
669.2	3.4065e-08
669.4	3.2446e-08
669.6	3.0905e-08
669.8	2.9436e-08
670.0	2.8038e-08
670.2	2.6706e-08
670.4	2.5437e-08
670.6	2.4228e-08
670.8	2.3077e-08
671.0	2.1981e-08
671.2	2.2496e-08
671.4	2.3508e-08
671.6	2.4565e-08
671.8	2.5671e-08
672.0	2.6826e-08
672.2	2.8033e-08
672.4	2.9294e-08
672.6	3.0612e-08
672.8	3.199e-08
673.0	3.3429e-08
673.2	3.4769e-08
673.4	3.6162e-08
673.6	3.7611e-08
673.8	3.9118e-08
674.0	4.2993e-08
674.2	5.1803e-08
674.4	6.2417e-08
674.6	7.5207e-08
674.8	9.0617e-08
675.0	1.0918e-07
675.2	1.3156e-07
675.4	1.5851e-07
675.6	1.9099e-07
675.8	2.3013e-07
676.0	2.7728e-07
676.2	3.341e-07
676.4	4.0255e-07
676.6	4.8504e-07
676.8	5.8442e-07
677.0	7.0417e-07
677.2	8.4846e-07
677.4	1.0223e-06
677.6	1.219e-06
677.8	1.2352e-06
678.0	1.2516e-06
678.2	1.2683e-06
678.4	1.2851e-06
678.6	1.3022e-06
678.8	1.3194e-06
679.0	1.337e-06
679.2	1.3547e-06
679.4	1.3727e-06
679.6	1.3909e-06
679.8	1.4094e-06
680.0	1.4281e-06
680.2	1.4471e-06
680.4	1.4663e-06
680.6	1.4858e-06
680.8	1.5055e-06
681.0	1.5255e-06
681.2	1.5457e-06
681.4	1.7285e-06
681.6	1.9956e-06
681.8	2.304e-06
682.0	2.6601e-06
682.2	3.0712e-06
682.4	3.5458e-06
682.6	4.0938e-06
682.8	4.7265e-06
683.0	5.4569e-06
683.2	6.3003e-06
683.4	7.2739e-06
683.6	8.3981e-06
683.8	9.6959e-06
684.0	1.1194e-05
684.2	1.2924e-05
684.4	1.4922e-05
684.6	1.7228e-05
684.8	1.989e-05
685.0	2.1456e-05
685.2	2.1371e-05
685.4	2.1286e-05
685.6	2.1202e-05
685.8	2.1117e-05
686.0	2.1034e-05
686.2	2.095e-05
686.4	2.0867e-05
686.6	2.0784e-05
686.8	2.0701e-05
687.0	2.0619e-05
687.2	2.0537e-05
687.4	2.0456e-05
687.6	2.0375e-05
687.8	2.0294e-05
688.0	2.0213e-05
688.2	2.0133e-05
688.4	2.0053e-05
688.6	1.9654e-05
688.8	1.7807e-05
689.0	1.6133e-05
689.2	1.4616e-05
689.4	1.3242e-05
689.6	1.1997e-05
689.8	1.0869e-05
690.0	9.8476e-06
690.2	8.9219e-06
690.4	8.0832e-06
690.6	7.3233e-06
690.8	6.6349e-06
691.0	6.0112e-06
691.2	5.4461e-06
691.4	4.9341e-06
691.6	4.4703e-06
691.8	4.05e-06
692.0	3.6693e-06
692.2	3.3244e-06
692.4	3.5599e-06
692.6	3.8877e-06
692.8	4.2457e-06
693.0	4.6366e-06
693.2	5.0635e-06
693.4	5.5297e-06
693.6	6.0388e-06
693.8	6.5948e-06
694.0	7.2021e-06
694.2	7.8652e-06
694.4	8.5893e-06
694.6	9.3802e-06
694.8	1.0244e-05
695.0	1.1187e-05
695.2	1.2217e-05
695.4	1.3342e-05
695.6	1.457e-05
695.8	1.5912e-05
696.0	1.5071e-05
696.2	1.3129e-05
696.4	1.1438e-05
696.6	9.9643e-06
696.8	8.6806e-06
697.0	7.5622e-06
697.2	6.588e-06
697.4	5.7392e-06
697.6	4.9998e-06
697.8	4.3557e-06
698.0	3.7945e-06
698.2	3.3057e-06
698.4	2.8798e-06
698.6	2.5088e-06
698.8	2.1856e-06
699.0	1.904e-06
699.2	1.6587e-06
699.4	1.445e-06
699.6	1.3264e-06
699.8	1.3282e-06
700.0	1.33e-06
700.2	1.3319e-06
700.4	1.3337e-06
700.6	1.3356e-06
700.8	1.3374e-06
701.0	1.3393e-06
701.2	1.3411e-06
701.4	1.343e-06
701.6	1.3448e-06
701.8	1.3467e-06
702.0	1.3485e-06
702.2	1.3504e-06
702.4	1.3523e-06
702.6	1.3541e-06
702.8	1.356e-06
703.0	1.3579e-06
703.2	1.3789e-06
703.4	1.5373e-06
703.6	1.7139e-06
703.8	1.9107e-06
704.0	2.1302e-06
704.2	2.3749e-06
704.4	2.6477e-06
704.6	2.9519e-06
704.8	3.291e-06
705.0	3.669e-06
705.2	4.0905e-06
705.4	4.5603e-06
705.6	5.0842e-06
705.8	5.6682e-06
706.0	6.3193e-06
706.2	7.0452e-06
706.4	7.8545e-06
706.6	8.7567e-06
706.8	9.7626e-06
707.0	1.0323e-05
707.2	1.0848e-05
707.4	1.14e-05
707.6	1.198e-05
707.8	1.2589e-05
708.0	1.323e-05
708.2	1.3903e-05
708.4	1.461e-05
708.6	1.5353e-05
708.8	1.6134e-05
709.0	1.6954e-05
709.2	1.7817e-05
709.4	1.8723e-05
709.6	1.9676e-05
709.8	2.0676e-05
710.0	2.1728e-05
710.2	2.2833e-05
710.4	2.3995e-05
710.6	2.3507e-05
710.8	2.2247e-05
711.0	2.1054e-05
711.2	1.9926e-05
711.4	1.8858e-05
711.6	1.7847e-05
711.8	1.689e-05
712.0	1.5985e-05
712.2	1.5128e-05
712.4	1.4317e-05
712.6	1.355e-05
712.8	1.2823e-05
713.0	1.2136e-05
713.2	1.1485e-05
713.4	1.087e-05
713.6	1.0287e-05
713.8	9.7357e-06
714.0	9.2139e-06
714.2	8.9449e-06
714.4	8.9527e-06
714.6	8.9605e-06
714.8	8.9683e-06
715.0	8.9762e-06
715.2	8.984e-06
715.4	8.9919e-06
715.6	8.9997e-06
715.8	9.0076e-06
716.0	9.0154e-06
716.2	9.0233e-06
716.4	9.0312e-06
716.6	9.0391e-06
716.8	9.047e-06
717.0	9.0549e-06
717.2	9.0628e-06
717.4	9.0707e-06
717.6	9.0786e-06
717.8	9.1995e-06
718.0	9.6739e-06
718.2	1.0173e-05
718.4	1.0697e-05
718.6	1.1249e-05
718.8	1.1829e-05
719.0	1.2439e-05
719.2	1.308e-05
719.4	1.3755e-05
719.6	1.4464e-05
719.8	1.521e-05
720.0	1.5994e-05
720.2	1.6819e-05
720.4	1.7686e-05
720.6	1.8598e-05
720.8	1.9557e-05
721.0	2.0566e-05
721.2	2.1626e-05
721.4	2.2754e-05
721.6	2.4172e-05
721.8	2.5678e-05
722.0	2.7278e-05
722.2	2.8978e-05
722.4	3.0783e-05
722.6	3.2701e-05
722.8	3.4739e-05
723.0	3.6903e-05
723.2	3.9203e-05
723.4	4.1646e-05
723.6	4.4241e-05
723.8	4.6997e-05
724.0	4.9925e-05
724.2	5.3036e-05
724.4	5.6341e-05
724.6	5.9851e-05
724.8	6.3581e-05
725.0	6.7542e-05
725.2	6.7556e-05
725.4	6.699e-05
725.6	6.6429e-05
725.8	6.5873e-05
726.0	6.5321e-05
726.2	6.4774e-05
726.4	6.4232e-05
726.6	6.3694e-05
726.8	6.316e-05
727.0	6.2631e-05
727.2	6.2107e-05
727.4	6.1587e-05
727.6	6.1071e-05
727.8	6.056e-05
728.0	6.0052e-05
728.2	5.955e-05
728.4	5.9051e-05
728.6	5.8556e-05
728.8	5.8464e-05
729.0	5.8542e-05
729.2	5.8621e-05
729.4	5.87e-05
729.6	5.8779e-05
729.8	5.8858e-05
730.0	5.8937e-05
730.2	5.9016e-05
730.4	5.9095e-05
730.6	5.9175e-05
730.8	5.9254e-05
731.0	5.9334e-05
731.2	5.9413e-05
731.4	5.9493e-05
731.6	5.9573e-05
731.8	5.9653e-05
732.0	5.9733e-05
732.2	5.9814e-05
732.4	6.0044e-05
732.6	6.0406e-05
732.8	6.0771e-05
733.0	6.1137e-05
733.2	6.1506e-05
733.4	6.1877e-05
733.6	6.225e-05
733.8	6.2626e-05
734.0	6.3003e-05
734.2	6.3383e-05
734.4	6.3766e-05
734.6	6.415e-05
734.8	6.4537e-05
735.0	6.4927e-05
735.2	6.5318e-05
735.4	6.5712e-05
735.6	6.6109e-05
735.8	6.6507e-05
736.0	6.6593e-05
736.2	6.6165e-05
736.4	6.574e-05
736.6	6.5317e-05
736.8	6.4898e-05
737.0	6.4481e-05
737.2	6.4067e-05
737.4	6.3655e-05
737.6	6.3246e-05
737.8	6.284e-05
738.0	6.2436e-05
738.2	6.2108e-05
738.4	6.1781e-05
738.6	6.1455e-05
738.8	6.1132e-05
739.0	6.081e-05
739.2	6.0302e-05
739.4	5.9736e-05
739.6	5.9176e-05
739.8	5.862e-05
740.0	5.807e-05
740.2	5.7526e-05
740.4	5.6986e-05
740.6	5.6451e-05
740.8	5.5922e-05
741.0	5.5397e-05
741.2	5.4877e-05
741.4	5.4362e-05
741.6	5.3852e-05
741.8	5.3347e-05
742.0	5.2847e-05
742.2	5.2351e-05
742.4	5.186e-05
742.6	5.1373e-05
742.8	5.0652e-05
743.0	4.9714e-05
743.2	4.8794e-05
743.4	4.7891e-05
743.6	4.7005e-05
743.8	4.6135e-05
744.0	4.5282e-05
744.2	4.4444e-05
744.4	4.3621e-05
744.6	4.2814e-05
744.8	4.2022e-05
745.0	4.1244e-05
745.2	4.0481e-05
745.4	3.9732e-05
745.6	3.8997e-05
745.8	3.8275e-05
746.0	3.7567e-05
746.2	3.6872e-05
746.4	3.62e-05
746.6	3.5565e-05
746.8	3.4942e-05
747.0	3.4329e-05
747.2	3.3727e-05
747.4	3.3136e-05
747.6	3.2555e-05
747.8	3.1984e-05
748.0	3.1424e-05
748.2	3.0873e-05
748.4	3.0332e-05
748.6	2.98e-05
748.8	2.9278e-05
749.0	2.8764e-05
749.2	2.826e-05
749.4	2.7765e-05
749.6	2.7278e-05
749.8	2.68e-05
750.0	2.6356e-05
750.2	2.6297e-05
750.4	2.6237e-05
750.6	2.6177e-05
750.8	2.6118e-05
751.0	2.6059e-05
751.2	2.6e-05
751.4	2.5941e-05
751.6	2.5882e-05
751.8	2.5823e-05
752.0	2.5764e-05
752.2	2.5706e-05
752.4	2.5648e-05
752.6	2.5589e-05
752.8	2.5531e-05
753.0	2.5473e-05
753.2	2.5415e-05
753.4	2.5358e-05
753.6	2.53e-05
753.8	2.5587e-05
754.0	2.5936e-05
754.2	2.629e-05
754.4	2.6648e-05
754.6	2.7012e-05
754.8	2.7381e-05
755.0	2.7754e-05
755.2	2.8133e-05
755.4	2.8517e-05
755.6	2.8906e-05
755.8	2.93e-05
756.0	2.97e-05
756.2	3.0106e-05
756.4	3.0516e-05
756.6	3.0933e-05
756.8	3.1355e-05
757.0	3.1783e-05
757.2	3.2216e-05
757.4	3.2721e-05
757.6	3.3269e-05
757.8	3.3825e-05
758.0	3.4391e-05
758.2	3.4967e-05
758.4	3.5552e-05
758.6	3.6147e-05
758.8	3.6751e-05
759.0	3.7366e-05
759.2	3.7992e-05
759.4	3.8627e-05
759.6	3.9274e-05
759.8	3.9931e-05
760.0	4.0599e-05
760.2	4.1278e-05
760.4	4.1969e-05
760.6	4.2671e-05
760.8	4.3385e-05
761.0	4.4028e-05
761.2	4.4585e-05
761.4	4.5149e-05
761.6	4.5721e-05
761.8	4.6299e-05
762.0	4.6885e-05
762.2	4.7479e-05
762.4	4.8079e-05
762.6	4.8688e-05
762.8	4.9304e-05
763.0	4.9928e-05
763.2	5.056e-05
763.4	5.12e-05
763.6	5.1848e-05
763.8	5.2504e-05
764.0	5.3168e-05
764.2	5.3841e-05
764.4	5.4523e-05
764.6	5.524e-05
764.8	5.6036e-05
765.0	5.6843e-05
765.2	5.7661e-05
765.4	5.8492e-05
765.6	5.9334e-05
765.8	6.0189e-05
766.0	6.1055e-05
766.2	6.1935e-05
766.4	6.2826e-05
766.6	6.3731e-05
766.8	6.4649e-05
767.0	6.558e-05
767.2	6.6524e-05
767.4	6.7482e-05
767.6	6.8454e-05
767.8	6.944e-05
768.0	7.044e-05
768.2	7.138e-05
768.4	7.1785e-05
768.6	7.2192e-05
768.8	7.2601e-05
769.0	7.3012e-05
769.2	7.3426e-05
769.4	7.3842e-05
769.6	7.4261e-05
769.8	7.4682e-05
770.0	7.5105e-05
770.2	7.5531e-05
770.4	7.5959e-05
770.6	7.639e-05
770.8	7.6823e-05
771.0	7.7258e-05
771.2	7.7696e-05
771.4	7.8136e-05
771.6	7.8579e-05
771.8	7.9025e-05
772.0	7.8708e-05
772.2	7.8365e-05
772.4	7.8023e-05
772.6	7.7683e-05
772.8	7.7344e-05
773.0	7.7007e-05
773.2	7.6671e-05
773.4	7.6337e-05
773.6	7.6004e-05
773.8	7.5673e-05
774.0	7.5343e-05
774.2	7.5015e-05
774.4	7.4688e-05
774.6	7.4362e-05
774.8	7.4038e-05
775.0	7.3715e-05
775.2	7.3394e-05
775.4	7.3074e-05
775.6	7.3128e-05
775.8	7.3266e-05
776.0	7.3404e-05
776.2	7.3543e-05
776.4	7.3682e-05
776.6	7.3821e-05
776.8	7.3961e-05
777.0	7.4101e-05
777.2	7.4241e-05
777.4	7.4381e-05
777.6	7.4522e-05
777.8	7.4663e-05
778.0	7.4804e-05
778.2	7.4945e-05
778.4	7.5087e-05
778.6	7.5229e-05
778.8	7.5371e-05
779.0	7.5513e-05
779.2	7.5355e-05
779.4	7.5055e-05
779.6	7.4757e-05
779.8	7.446e-05
780.0	7.4164e-05
780.2	7.3869e-05
780.4	7.3575e-05
780.6	7.3283e-05
780.8	7.2991e-05
781.0	7.2701e-05
781.2	7.2412e-05
781.4	7.2124e-05
781.6	7.1838e-05
781.8	7.1552e-05
782.0	7.1268e-05
782.2	7.0985e-05
782.4	7.0702e-05
782.6	7.0421e-05
782.8	6.9717e-05
783.0	6.8679e-05
783.2	6.7656e-05
783.4	6.6648e-05
783.6	6.5655e-05
783.8	6.4677e-05
784.0	6.3714e-05
784.2	6.2765e-05
784.4	6.183e-05
784.6	6.0909e-05
784.8	6.0001e-05
785.0	5.9107e-05
785.2	5.8227e-05
785.4	5.736e-05
785.6	5.6505e-05
785.8	5.5663e-05
786.0	5.4834e-05
786.2	5.4017e-05
786.4	5.334e-05
786.6	5.2835e-05
786.8	5.2334e-05
787.0	5.1839e-05
787.2	5.1348e-05
787.4	5.0861e-05
787.6	5.038e-05
787.8	4.9903e-05
788.0	4.943e-05
788.2	4.8962e-05
788.4	4.8498e-05
788.6	4.8039e-05
788.8	4.7584e-05
789.0	4.7133e-05
789.2	4.6687e-05
789.4	4.6244e-05
789.6	4.5806e-05
789.8	4.5373e-05
790.0	4.4899e-05
790.2	4.4341e-05
790.4	4.379e-05
790.6	4.3245e-05
790.8	4.2708e-05
791.0	4.2177e-05
791.2	4.1652e-05
791.4	4.1134e-05
791.6	4.0623e-05
791.8	4.0118e-05
792.0	3.9619e-05
792.2	3.9127e-05
792.4	3.864e-05
792.6	3.816e-05
792.8	3.7686e-05
793.0	3.7217e-05
793.2	3.6754e-05
793.4	3.6297e-05
793.6	3.5789e-05
793.8	3.5102e-05
794.0	3.4427e-05
794.2	3.3765e-05
794.4	3.3117e-05
794.6	3.248e-05
794.8	3.1856e-05
795.0	3.1244e-05
795.2	3.0415e-05
795.4	2.9608e-05
795.6	2.8823e-05
795.8	2.8059e-05
796.0	2.7314e-05
796.2	2.659e-05
796.4	2.5885e-05
796.6	2.5198e-05
796.8	2.453e-05
797.0	2.3879e-05
797.2	2.3249e-05
797.4	2.2653e-05
797.6	2.2073e-05
797.8	2.1508e-05
798.0	2.0958e-05
798.2	2.0421e-05
798.4	1.9898e-05
798.6	1.9389e-05
798.8	1.8893e-05
799.0	1.8409e-05
799.2	1.7938e-05
799.4	1.7478e-05
799.6	1.7031e-05
799.8	1.6595e-05
800.0	1.617e-05
800.2	1.5756e-05
800.4	1.5353e-05
800.6	1.496e-05
800.8	1.4585e-05
801.0	1.4348e-05
801.2	1.4116e-05
801.4	1.3887e-05
801.6	1.3662e-05
801.8	1.344e-05
802.0	1.3223e-05
802.2	1.3008e-05
802.4	1.2798e-05
802.6	1.259e-05
802.8	1.2386e-05
803.0	1.2185e-05
803.2	1.1982e-05
803.4	1.1782e-05
803.6	1.1585e-05
803.8	1.1391e-05
804.0	1.1201e-05
804.2	1.1017e-05
804.4	1.0933e-05
804.6	1.085e-05
804.8	1.0768e-05
805.0	1.0686e-05
805.2	1.0605e-05
805.4	1.0524e-05
805.6	1.0445e-05
805.8	1.0365e-05
806.0	1.0287e-05
806.2	1.0209e-05
806.4	1.0131e-05
806.6	1.0054e-05
806.8	9.978e-06
807.0	9.9023e-06
807.2	9.8271e-06
807.4	9.7526e-06
807.6	9.6786e-06
807.8	9.6051e-06
808.0	9.6533e-06
808.2	9.7185e-06
808.4	9.7841e-06
808.6	9.8501e-06
808.8	9.9166e-06
809.0	9.9836e-06
809.2	1.0051e-05
809.4	1.0119e-05
809.6	1.0187e-05
809.8	1.0256e-05
810.0	1.0325e-05
810.2	1.0395e-05
810.4	1.0465e-05
810.6	1.0536e-05
810.8	1.0607e-05
811.0	1.0678e-05
811.2	1.075e-05
811.4	1.0823e-05
811.6	1.1039e-05
811.8	1.1311e-05
812.0	1.159e-05
812.2	1.1875e-05
812.4	1.2168e-05
812.6	1.2468e-05
812.8	1.2775e-05
813.0	1.309e-05
813.2	1.3413e-05
813.4	1.3743e-05
813.6	1.4082e-05
813.8	1.4429e-05
814.0	1.4784e-05
814.2	1.5149e-05
814.4	1.5522e-05
814.6	1.5905e-05
814.8	1.6297e-05
815.0	1.6698e-05
815.2	1.7331e-05
815.4	1.8138e-05
815.6	1.8984e-05
815.8	1.9869e-05
816.0	2.0795e-05
816.2	2.1764e-05
816.4	2.2778e-05
816.6	2.384e-05
816.8	2.4951e-05
817.0	2.6113e-05
817.2	2.733e-05
817.4	2.8604e-05
817.6	2.9937e-05
817.8	3.1333e-05
818.0	3.2793e-05
818.2	3.4321e-05
818.4	3.5921e-05
818.6	3.7595e-05
818.8	3.9227e-05
819.0	4.0796e-05
819.2	4.2427e-05
819.4	4.4123e-05
819.6	4.5887e-05
819.8	4.7722e-05
820.0	4.963e-05
820.2	5.1615e-05
820.4	5.3678e-05
820.6	5.5825e-05
820.8	5.8057e-05
821.0	6.0378e-05
821.2	6.2792e-05
821.4	6.5303e-05
821.6	6.7914e-05
821.8	7.0629e-05
822.0	7.3453e-05
822.2	7.639e-05
822.4	7.8231e-05
822.6	7.8043e-05
822.8	7.7855e-05
823.0	7.7667e-05
823.2	7.748e-05
823.4	7.7294e-05
823.6	7.7108e-05
823.8	7.6922e-05
824.0	7.6737e-05
824.2	7.6552e-05
824.4	7.6368e-05
824.6	7.6184e-05
824.8	7.6001e-05
825.0	7.5818e-05
825.2	7.5635e-05
825.4	7.5453e-05
825.6	7.5272e-05
825.8	7.5091e-05
826.0	7.489e-05
826.2	7.4637e-05
826.4	7.4385e-05
826.6	7.4134e-05
826.8	7.3883e-05
827.0	7.3633e-05
827.2	7.3384e-05
827.4	7.3136e-05
827.6	7.2889e-05
827.8	7.2643e-05
828.0	7.2397e-05
828.2	7.2152e-05
828.4	7.1908e-05
828.6	7.1665e-05
828.8	7.1423e-05
829.0	7.1182e-05
829.2	7.0941e-05
829.4	7.0701e-05
829.6	7.0473e-05
829.8	7.0298e-05
830.0	7.0123e-05
830.2	6.9948e-05
830.4	6.9774e-05
830.6	6.9601e-05
830.8	6.9428e-05
831.0	6.9255e-05
831.2	6.9082e-05
831.4	6.8911e-05
831.6	6.8739e-05
831.8	6.8568e-05
832.0	6.8397e-05
832.2	6.8227e-05
832.4	6.8058e-05
832.6	6.7888e-05
832.8	6.7719e-05
833.0	6.7551e-05
833.2	6.7238e-05
833.4	6.5396e-05
833.6	6.3604e-05
833.8	6.1862e-05
834.0	6.0167e-05
834.2	5.8518e-05
834.4	5.6915e-05
834.6	5.5356e-05
834.8	5.3839e-05
835.0	5.2364e-05
835.2	5.093e-05
835.4	4.9534e-05
835.6	4.8177e-05
835.8	4.6857e-05
836.0	4.5573e-05
836.2	4.4325e-05
836.4	4.311e-05
836.6	4.1929e-05
836.8	4.0781e-05
837.0	3.9666e-05
837.2	3.8582e-05
837.4	3.7527e-05
837.6	3.6501e-05
837.8	3.5504e-05
838.0	3.4533e-05
838.2	3.3589e-05
838.4	3.2671e-05
838.6	3.1778e-05
838.8	3.091e-05
839.0	3.0065e-05
839.2	2.9243e-05
839.4	2.8444e-05
839.6	2.7666e-05
839.8	2.691e-05
840.0	2.6175e-05
840.2	2.5459e-05
840.4	2.4763e-05
840.6	2.4553e-05
840.8	2.4372e-05
841.0	2.4193e-05
841.2	2.4015e-05
841.4	2.3838e-05
841.6	2.3662e-05
841.8	2.3487e-05
842.0	2.3314e-05
842.2	2.3143e-05
842.4	2.2972e-05
842.6	2.2803e-05
842.8	2.2635e-05
843.0	2.2468e-05
843.2	2.2302e-05
843.4	2.2138e-05
843.6	2.1975e-05
843.8	2.1813e-05
844.0	2.1652e-05
844.2	2.1903e-05
844.4	2.2212e-05
844.6	2.2525e-05
844.8	2.2843e-05
845.0	2.3165e-05
845.2	2.3492e-05
845.4	2.3823e-05
845.6	2.4159e-05
845.8	2.45e-05
846.0	2.4845e-05
846.2	2.5196e-05
846.4	2.5551e-05
846.6	2.5912e-05
846.8	2.6277e-05
847.0	2.6648e-05
847.2	2.7023e-05
847.4	2.7404e-05
847.6	2.7791e-05
847.8	2.8615e-05
848.0	2.9548e-05
848.2	3.0512e-05
848.4	3.1508e-05
848.6	3.2536e-05
848.8	3.3598e-05
849.0	3.4694e-05
849.2	3.5826e-05
849.4	3.6995e-05
849.6	3.8202e-05
849.8	3.9448e-05
850.0	4.0735e-05
850.2	4.2064e-05
850.4	4.3437e-05
850.6	4.4854e-05
850.8	4.6317e-05
851.0	4.7829e-05
851.2	4.9389e-05
851.4	5.0451e-05
851.6	5.1397e-05
851.8	5.2361e-05
852.0	5.3342e-05
852.2	5.4342e-05
852.4	5.5361e-05
852.6	5.6399e-05
852.8	5.7456e-05
853.0	5.8534e-05
853.2	5.9631e-05
853.4	6.0749e-05
853.6	6.1888e-05
853.8	6.3048e-05
854.0	6.423e-05
854.2	6.5434e-05
854.4	6.6661e-05
854.6	6.7911e-05
854.8	6.9184e-05
855.0	6.7017e-05
855.2	6.3976e-05
855.4	6.1073e-05
855.6	5.8301e-05
855.8	5.5656e-05
856.0	5.313e-05
856.2	5.0719e-05
856.4	4.8417e-05
856.6	4.622e-05
856.8	4.4123e-05
857.0	4.212e-05
857.2	4.0209e-05
857.4	3.8384e-05
857.6	3.6642e-05
857.8	3.4979e-05
858.0	3.3392e-05
858.2	3.1877e-05
858.4	3.043e-05
858.6	2.8652e-05
858.8	2.6857e-05
859.0	2.5175e-05
859.2	2.3598e-05
859.4	2.212e-05
859.6	2.0734e-05
859.8	1.9436e-05
860.0	1.8218e-05
860.2	1.7077e-05
860.4	1.6008e-05
860.6	1.5005e-05
860.8	1.4065e-05
861.0	1.3184e-05
861.2	1.2358e-05
861.4	1.1584e-05
861.6	1.0859e-05
861.8	1.0178e-05
862.0	9.5409e-06
862.2	9.0734e-06
862.4	8.6715e-06
862.6	8.2875e-06
862.8	7.9205e-06
863.0	7.5697e-06
863.2	7.2345e-06
863.4	6.9141e-06
863.6	6.6079e-06
863.8	6.3152e-06
864.0	6.0356e-06
864.2	5.7683e-06
864.4	5.5128e-06
864.6	5.2687e-06
864.8	5.0353e-06
865.0	4.8124e-06
865.2	4.5992e-06
865.4	4.3955e-06
865.6	4.2009e-06
865.8	4.0768e-06
866.0	3.9772e-06
866.2	3.88e-06
866.4	3.7852e-06
866.6	3.6927e-06
866.8	3.6025e-06
867.0	3.5145e-06
867.2	3.4286e-06
867.4	3.3448e-06
867.6	3.2631e-06
867.8	3.1833e-06
868.0	3.1056e-06
868.2	3.0177e-06
868.4	2.9323e-06
868.6	2.8494e-06
868.8	2.7688e-06
869.0	2.6905e-06
869.2	2.6144e-06
869.4	2.5538e-06
869.6	2.5234e-06
869.8	2.4933e-06
870.0	2.4636e-06
870.2	2.4343e-06
870.4	2.4053e-06
870.6	2.3766e-06
870.8	2.3483e-06
871.0	2.3203e-06
871.2	2.2927e-06
871.4	2.2654e-06
871.6	2.2384e-06
871.8	2.2117e-06
872.0	2.1854e-06
872.2	2.1594e-06
872.4	2.1336e-06
872.6	2.1082e-06
872.8	2.0831e-06
873.0	2.0655e-06
873.2	2.0704e-06
873.4	2.0753e-06
873.6	2.0802e-06
873.8	2.0851e-06
874.0	2.09e-06
874.2	2.0949e-06
874.4	2.0999e-06
874.6	2.1048e-06
874.8	2.1098e-06
875.0	2.1148e-06
875.2	2.1197e-06
875.4	2.1247e-06
875.6	2.1298e-06
875.8	2.1348e-06
876.0	2.1398e-06
876.2	2.1449e-06
876.4	2.1499e-06
876.6	2.1628e-06
876.8	2.2105e-06
877.0	2.2593e-06
877.2	2.3092e-06
877.4	2.3601e-06
877.6	2.4122e-06
877.8	2.4655e-06
878.0	2.5199e-06
878.2	2.5755e-06
878.4	2.6323e-06
878.6	2.6904e-06
878.8	2.7498e-06
879.0	2.8105e-06
879.2	2.8725e-06
879.4	2.9359e-06
879.6	3.0007e-06
879.8	3.067e-06
880.0	3.1347e-06
880.2	3.2103e-06
880.4	3.3322e-06
880.6	3.4588e-06
880.8	3.5902e-06
881.0	3.7265e-06
881.2	3.8681e-06
881.4	4.015e-06
881.6	4.1675e-06
881.8	4.3258e-06
882.0	4.4901e-06
882.2	4.6606e-06
882.4	4.8377e-06
882.6	5.0214e-06
882.8	5.2121e-06
883.0	5.4101e-06
883.2	5.6156e-06
883.4	5.8289e-06
883.6	6.0503e-06
883.8	6.2911e-06
884.0	6.6579e-06
884.2	7.0461e-06
884.4	7.457e-06
884.6	7.8918e-06
884.8	8.3519e-06
885.0	8.8389e-06
885.2	9.3543e-06
885.4	9.8998e-06
885.6	1.0477e-05
885.8	1.1088e-05
886.0	1.1734e-05
886.2	1.2419e-05
886.4	1.3143e-05
886.6	1.3909e-05
886.8	1.472e-05
887.0	1.5579e-05
887.2	1.6487e-05
887.4	1.745e-05
887.6	1.8504e-05
887.8	1.9621e-05
888.0	2.0805e-05
888.2	2.2061e-05
888.4	2.3392e-05
888.6	2.4804e-05
888.8	2.6302e-05
889.0	2.7889e-05
889.2	2.9573e-05
889.4	3.1358e-05
889.6	3.3251e-05
889.8	3.5258e-05
890.0	3.7386e-05
890.2	3.9643e-05
890.4	4.2036e-05
890.6	4.4573e-05
890.8	4.7264e-05
891.0	5.0044e-05
891.2	5.0928e-05
891.4	5.1826e-05
891.6	5.2741e-05
891.8	5.3672e-05
892.0	5.4619e-05
892.2	5.5583e-05
892.4	5.6564e-05
892.6	5.7562e-05
892.8	5.8578e-05
893.0	5.9612e-05
893.2	6.0664e-05
893.4	6.1735e-05
893.6	6.2824e-05
893.8	6.3933e-05
894.0	6.5061e-05
894.2	6.6209e-05
894.4	6.7378e-05
894.6	6.8536e-05
894.8	6.818e-05
895.0	6.7825e-05
895.2	6.7473e-05
895.4	6.7122e-05
895.6	6.6773e-05
895.8	6.6426e-05
896.0	6.6081e-05
896.2	6.5737e-05
896.4	6.5395e-05
896.6	6.5055e-05
896.8	6.4717e-05
897.0	6.4381e-05
897.2	6.4046e-05
897.4	6.3713e-05
897.6	6.3382e-05
897.8	6.3053e-05
898.0	6.2725e-05
898.2	6.2406e-05
898.4	6.2435e-05
898.6	6.2464e-05
898.8	6.2492e-05
899.0	6.2521e-05
899.2	6.255e-05
899.4	6.2579e-05
899.6	6.2608e-05
899.8	6.2637e-05
900.0	6.2666e-05
900.2	6.2695e-05
900.4	6.2724e-05
900.6	6.2753e-05
900.8	6.2782e-05
901.0	6.2811e-05
901.2	6.284e-05
901.4	6.2869e-05
901.6	6.2898e-05
901.8	6.2926e-05
902.0	6.289e-05
902.2	6.2855e-05
902.4	6.282e-05
902.6	6.2784e-05
902.8	6.2749e-05
903.0	6.2714e-05
903.2	6.2678e-05
903.4	6.2643e-05
903.6	6.2608e-05
903.8	6.2573e-05
904.0	6.2537e-05
904.2	6.2502e-05
904.4	6.2467e-05
904.6	6.2432e-05
904.8	6.2397e-05
905.0	6.2362e-05
905.2	6.2327e-05
905.4	6.2285e-05
905.6	6.2092e-05
905.8	6.1899e-05
906.0	6.1707e-05
906.2	6.1515e-05
906.4	6.1324e-05
906.6	6.1134e-05
906.8	6.0944e-05
907.0	6.0755e-05
907.2	6.0567e-05
907.4	6.0379e-05
907.6	6.0191e-05
907.8	6.0004e-05
908.0	5.9818e-05
908.2	5.9632e-05
908.4	5.9447e-05
908.6	5.9263e-05
908.8	5.9079e-05
909.0	5.8916e-05
909.2	5.9048e-05
909.4	5.918e-05
909.6	5.9313e-05
909.8	5.9446e-05
910.0	5.9579e-05
910.2	5.9712e-05
910.4	5.9846e-05
910.6	5.998e-05
910.8	6.0115e-05
911.0	6.025e-05
911.2	6.0385e-05
911.4	6.052e-05
911.6	6.0655e-05
911.8	6.0791e-05
912.0	6.0928e-05
912.2	6.1064e-05
912.4	6.1201e-05
912.6	6.1335e-05
912.8	6.1438e-05
913.0	6.1542e-05
913.2	6.1646e-05
913.4	6.175e-05
913.6	6.1854e-05
913.8	6.1958e-05
914.0	6.2062e-05
914.2	6.2167e-05
914.4	6.2272e-05
914.6	6.2377e-05
914.8	6.2482e-05
915.0	6.2587e-05
915.2	6.2693e-05
915.4	6.2799e-05
915.6	6.2905e-05
915.8	6.3011e-05
916.0	6.3117e-05
916.2	6.3068e-05
916.4	6.2113e-05
916.6	6.1172e-05
916.8	6.0246e-05
917.0	5.9333e-05
917.2	5.8435e-05
917.4	5.755e-05
917.6	5.6678e-05
917.8	5.582e-05
918.0	5.4974e-05
918.2	5.4142e-05
918.4	5.3322e-05
918.6	5.2514e-05
918.8	5.1719e-05
919.0	5.0936e-05
919.2	5.0164e-05
919.4	4.9405e-05
919.6	4.8656e-05
919.8	4.7809e-05
920.0	4.6532e-05
920.2	4.5288e-05
920.4	4.4078e-05
920.6	4.2901e-05
920.8	4.1754e-05
921.0	4.0639e-05
921.2	3.9553e-05
921.4	3.8496e-05
921.6	3.7468e-05
921.8	3.6466e-05
922.0	3.5492e-05
922.2	3.4544e-05
922.4	3.3621e-05
922.6	3.2723e-05
922.8	3.1848e-05
923.0	3.0997e-05
923.2	3.0169e-05
923.4	2.9416e-05
923.6	2.8828e-05
923.8	2.8252e-05
924.0	2.7688e-05
924.2	2.7135e-05
924.4	2.6593e-05
924.6	2.6062e-05
924.8	2.5541e-05
925.0	2.5031e-05
925.2	2.4531e-05
925.4	2.4041e-05
925.6	2.3561e-05
925.8	2.309e-05
926.0	2.2629e-05
926.2	2.2177e-05
926.4	2.1734e-05
926.6	2.13e-05
926.8	2.0875e-05
927.0	2.0542e-05
927.2	2.0385e-05
927.4	2.0229e-05
927.6	2.0075e-05
927.8	1.9921e-05
928.0	1.9769e-05
928.2	1.9618e-05
928.4	1.9468e-05
928.6	1.9319e-05
928.8	1.9171e-05
929.0	1.9025e-05
929.2	1.8879e-05
929.4	1.8735e-05
929.6	1.8592e-05
929.8	1.8449e-05
930.0	1.8308e-05
930.2	1.8168e-05
930.4	1.8029e-05
930.6	1.7989e-05
930.8	1.8091e-05
931.0	1.8193e-05
931.2	1.8296e-05
931.4	1.8399e-05
931.6	1.8503e-05
931.8	1.8608e-05
932.0	1.8713e-05
932.2	1.8907e-05
932.4	1.8542e-05
932.6	1.9113e-05
932.8	1.8537e-05
933.0	1.877e-05
933.2	1.8921e-05
933.4	2.0007e-05
933.6	2.0125e-05
933.8	1.9932e-05
934.0	2.1336e-05
934.2	2.0111e-05
934.4	2.0263e-05
934.6	2.111e-05
934.8	2.1753e-05
935.0	2.2001e-05
935.2	2.1743e-05
935.4	2.2919e-05
935.6	2.324e-05
935.8	2.2948e-05
936.0	2.46e-05
936.2	2.5614e-05
936.4	2.4241e-05
936.6	2.5727e-05
936.8	2.666e-05
937.0	2.8021e-05
937.2	2.9013e-05
937.4	2.8759e-05
937.6	2.9707e-05
937.8	3.0391e-05
938.0	3.1897e-05
938.2	3.232e-05
938.4	3.3987e-05
938.6	3.5581e-05
938.8	3.6514e-05
939.0	3.8359e-05
939.2	3.7897e-05
939.4	4.1113e-05
939.6	4.0797e-05
939.8	4.2708e-05
940.0	4.5585e-05
940.2	4.9249e-05
940.4	4.8155e-05
940.6	5.202e-05
940.8	5.1651e-05
941.0	5.5432e-05
941.2	5.7507e-05
941.4	6.2636e-05
941.6	6.5253e-05
941.8	6.7359e-05
942.0	7.0275e-05
942.2	7.7362e-05
942.4	7.8788e-05
942.6	8.3501e-05
942.8	8.4926e-05
943.0	9.176e-05
943.2	9.7862e-05
943.4	1.0431e-04
943.6	1.132e-04
943.8	1.2381e-04
944.0	1.2662e-04
944.2	1.3609e-04
944.4	1.4516e-04
944.6	1.559e-04
944.8	1.6668e-04
945.0	1.7912e-04
945.2	1.9209e-04
945.4	2.1387e-04
945.6	2.2781e-04
945.8	2.476e-04
946.0	2.6916e-04
946.2	2.9573e-04
946.4	3.252e-04
946.6	3.5717e-04
946.8	3.9343e-04
947.0	4.2334e-04
947.2	4.5963e-04
947.4	5.0935e-04
947.6	5.4787e-04
947.8	6.0225e-04
948.0	6.5947e-04
948.2	7.253e-04
948.4	7.8743e-04
948.6	8.4267e-04
948.8	9.0307e-04
949.0	9.539e-04
949.2	0.001
949.4	0.00105
949.6	0.00108
949.8	0.00111
950.0	0.00113
950.2	0.00112
950.4	0.00111
950.6	0.0011
950.8	0.00108
951.0	0.00105
951.2	0.00102
951.4	9.8249e-04
951.6	9.5085e-04
951.8	9.1241e-04
952.0	8.6539e-04
952.2	8.2391e-04
952.4	7.9304e-04
952.6	7.6517e-04
952.8	7.3802e-04
953.0	7.0996e-04
953.2	6.8914e-04
953.4	6.6003e-04
953.6	6.4072e-04
953.8	6.1461e-04
954.0	5.9769e-04
954.2	5.8208e-04
954.4	5.6749e-04
954.6	5.4592e-04
954.8	5.4277e-04
955.0	5.2796e-04
955.2	5.134e-04
955.4	5.1082e-04
955.6	5.0908e-04
955.8	5.0255e-04
956.0	4.9184e-04
956.2	4.8016e-04
956.4	4.8229e-04
956.6	4.7858e-04
956.8	4.7632e-04
957.0	4.7884e-04
957.2	4.7854e-04
957.4	4.7995e-04
957.6	4.7601e-04
957.8	4.7902e-04
958.0	4.851e-04
958.2	4.8264e-04
958.4	4.9306e-04
958.6	4.9351e-04
958.8	4.9946e-04
959.0	5.0897e-04
959.2	5.1138e-04
959.4	5.2223e-04
959.6	5.3265e-04
959.8	5.3913e-04
960.0	5.4956e-04
960.2	5.6849e-04
960.4	5.748e-04
960.6	5.8152e-04
960.8	6.0984e-04
961.0	6.1807e-04
961.2	6.325e-04
961.4	6.5333e-04
961.6	6.732e-04
961.8	7.01e-04
962.0	7.224e-04
962.2	7.4337e-04
962.4	7.7938e-04
962.6	8.0271e-04
962.8	8.3625e-04
963.0	8.6805e-04
963.2	9.063e-04
963.4	9.4098e-04
963.6	9.895e-04
963.8	0.00103
964.0	0.00108
964.2	0.00113
964.4	0.0012
964.6	0.00126
964.8	0.00132
965.0	0.00139
965.2	0.00147
965.4	0.00154
965.6	0.00163
965.8	0.00173
966.0	0.00184
966.2	0.00194
966.4	0.00207
966.6	0.00219
966.8	0.00233
967.0	0.00247
967.2	0.00264
967.4	0.0028
967.6	0.00297
967.8	0.00316
968.0	0.00337
968.2	0.0036
968.4	0.00381
968.6	0.00404
968.8	0.00427
969.0	0.00455
969.2	0.00482
969.4	0.00506
969.6	0.00533
969.8	0.00559
970.0	0.00587
970.2	0.00617
970.4	0.0064
970.6	0.00665
970.8	0.00689
971.0	0.00713
971.2	0.00732
971.4	0.00751
971.6	0.00767
971.8	0.00784
972.0	0.00796
972.2	0.00813
972.4	0.00818
972.6	0.0083
972.8	0.00832
973.0	0.00839
973.2	0.00839
973.4	0.00844
973.6	0.00845
973.8	0.00846
974.0	0.00843
974.2	0.00845
974.4	0.00842
974.6	0.00841
974.8	0.00838
975.0	0.00839
975.2	0.00835
975.4	0.00836
975.6	0.00839
975.8	0.00835
976.0	0.00836
976.2	0.00837
976.4	0.00834
976.6	0.00835
976.8	0.00836
977.0	0.00836
977.2	0.00838
977.4	0.00837
977.6	0.00839
977.8	0.00834
978.0	0.00838
978.2	0.00836
978.4	0.0084
978.6	0.00835
978.8	0.00834
979.0	0.0083
979.2	0.00829
979.4	0.00827
979.6	0.00822
979.8	0.00818
980.0	0.0081
980.2	0.00806
980.4	0.00796
980.6	0.00791
980.8	0.0078
981.0	0.00774
981.2	0.00765
981.4	0.00754
981.6	0.00742
981.8	0.00728
982.0	0.00714
982.2	0.00703
982.4	0.0069
982.6	0.00675
982.8	0.00663
983.0	0.00649
983.2	0.00635
983.4	0.0062
983.6	0.00607
983.8	0.00592
984.0	0.00581
984.2	0.00568
984.4	0.00553
984.6	0.00538
984.8	0.00529
985.0	0.00517
985.2	0.00505
985.4	0.00496
985.6	0.00484
985.8	0.00472
986.0	0.00461
986.2	0.00455
986.4	0.00444
986.6	0.00436
986.8	0.00426
987.0	0.00419
987.2	0.00409
987.4	0.00406
987.6	0.004
987.8	0.00394
988.0	0.00388
988.2	0.00383
988.4	0.00379
988.6	0.00373
988.8	0.00369
989.0	0.00367
989.2	0.00364
989.4	0.0036
989.6	0.00357
989.8	0.00356
990.0	0.00353
990.2	0.00352
990.4	0.0035
990.6	0.00352
990.8	0.00349
991.0	0.0035
991.2	0.0035
991.4	0.0035
991.6	0.00348
991.8	0.00353
992.0	0.00354
992.2	0.00355
992.4	0.00355
992.6	0.0036
992.8	0.00362
993.0	0.00365
993.2	0.00369
993.4	0.00375
993.6	0.00378
993.8	0.00381
994.0	0.00388
994.2	0.00392
994.4	0.00399
994.6	0.00403
994.8	0.00408
995.0	0.00419
995.2	0.00425
995.4	0.00432
995.6	0.0044
995.8	0.00448
996.0	0.00457
996.2	0.00467
996.4	0.00478
996.6	0.00487
996.8	0.00499
997.0	0.00509
997.2	0.00519
997.4	0.00532
997.6	0.00548
997.8	0.00559
998.0	0.00571
998.2	0.00585
998.4	0.00597
998.6	0.00614
998.8	0.00626
999.0	0.0064
999.2	0.00655
999.4	0.0067
999.6	0.00683
999.8	0.00696
1000.0	0.00707
1000.2	0.00713
1000.4	0.00727
1000.6	0.00739
1000.8	0.00748
1001.0	0.00763
1001.2	0.00769
1001.4	0.00781
1001.6	0.00789
1001.8	0.00798
1002.0	0.00802
1002.2	0.00807
1002.4	0.00815
1002.6	0.00814
1002.8	0.00821
1003.0	0.00821
1003.2	0.00821
1003.4	0.00824
1003.6	0.0082
1003.8	0.00821
1004.0	0.00818
1004.2	0.00815
1004.4	0.0081
1004.6	0.00809
1004.8	0.00804
1005.0	0.00797
1005.2	0.00793
1005.4	0.00789
1005.6	0.00783
1005.8	0.00775
1006.0	0.00772
1006.2	0.00769
1006.4	0.00761
1006.6	0.00755
1006.8	0.00749
1007.0	0.00746
1007.2	0.00739
1007.4	0.00735
1007.6	0.00729
1007.8	0.00722
1008.0	0.00723
1008.2	0.00719
1008.4	0.00714
1008.6	0.00711
1008.8	0.00708
1009.0	0.00704
1009.2	0.00703
1009.4	0.00703
1009.6	0.00701
1009.8	0.00701
1010.0	0.00698
1010.2	0.00695
1010.4	0.00697
1010.6	0.00695
1010.8	0.00696
1011.0	0.00695
1011.2	0.00696
1011.4	0.00695
1011.6	0.00697
1011.8	0.00695
1012.0	0.00692
1012.2	0.00691
1012.4	0.00692
1012.6	0.00691
1012.8	0.00691
1013.0	0.00687
1013.2	0.00688
1013.4	0.00683
1013.6	0.00681
1013.8	0.00676
1014.0	0.00672
1014.2	0.00669
1014.4	0.0066
1014.6	0.00654
1014.8	0.00647
1015.0	0.0064
1015.2	0.00632
1015.4	0.0062
1015.6	0.0061
1015.8	0.006
1016.0	0.00589
1016.2	0.00576
1016.4	0.00564
1016.6	0.00552
1016.8	0.00538
1017.0	0.00524
1017.2	0.00512
1017.4	0.00494
1017.6	0.00483
1017.8	0.00466
1018.0	0.00454
1018.2	0.0044
1018.4	0.00427
1018.6	0.00413
1018.8	0.00397
1019.0	0.00382
1019.2	0.00368
1019.4	0.00357
1019.6	0.00347
1019.8	0.00335
1020.0	0.00321
1020.2	0.00309
1020.4	0.003
1020.6	0.00291
1020.8	0.0028
1021.0	0.00271
1021.2	0.0026
1021.4	0.0025
1021.6	0.00243
1021.8	0.00233
1022.0	0.00227
1022.2	0.00218
1022.4	0.00212
1022.6	0.00205
1022.8	0.00198
1023.0	0.00191
1023.2	0.00186
1023.4	0.00181
1023.6	0.00175
1023.8	0.0017
1024.0	0.00166
1024.2	0.00159
1024.4	0.00155
1024.6	0.00152
1024.8	0.00148
1025.0	0.00144
1025.2	0.00141
1025.4	0.00138
1025.6	0.00134
1025.8	0.00131
1026.0	0.00129
1026.2	0.00126
1026.4	0.00123
1026.6	0.0012
1026.8	0.00118
1027.0	0.00115
1027.2	0.00113
1027.4	0.00111
1027.6	0.00109
1027.8	0.00107
1028.0	0.00105
1028.2	0.00103
1028.4	0.00102
1028.6	0.001
1028.8	9.8875e-04
1029.0	9.7528e-04
1029.2	9.62e-04
1029.4	9.5033e-04
1029.6	9.3917e-04
1029.8	9.2813e-04
1030.0	9.1723e-04
1030.2	9.0701e-04
1030.4	8.9804e-04
1030.6	8.8915e-04
1030.8	8.8036e-04
1031.0	8.7164e-04
1031.2	8.6677e-04
1031.4	8.6255e-04
1031.6	8.5836e-04
1031.8	8.5418e-04
1032.0	8.4967e-04
1032.2	8.4463e-04
1032.4	8.3962e-04
1032.6	8.3464e-04
1032.8	8.2969e-04
1033.0	8.2851e-04
1033.2	8.2764e-04
1033.4	8.2677e-04
1033.6	8.259e-04
1033.8	8.2539e-04
1034.0	8.253e-04
1034.2	8.252e-04
1034.4	8.2511e-04
1034.6	8.2501e-04
1034.8	8.2936e-04
1035.0	8.3374e-04
1035.2	8.3813e-04
1035.4	8.4255e-04
1035.6	8.4709e-04
1035.8	8.5175e-04
1036.0	8.5643e-04
1036.2	8.6114e-04
1036.4	8.6622e-04
1036.6	8.7562e-04
1036.8	8.8513e-04
1037.0	8.9474e-04
1037.2	9.0445e-04
1037.4	9.1378e-04
1037.6	9.2287e-04
1037.8	9.3206e-04
1038.0	9.4134e-04
1038.2	9.5131e-04
1038.4	9.6476e-04
1038.6	9.784e-04
1038.8	9.9223e-04
1039.0	0.00101
1039.2	0.00102
1039.4	0.00103
1039.6	0.00105
1039.8	0.00106
1040.0	0.00108
1040.2	0.0011
1040.4	0.00112
1040.6	0.00114
1040.8	0.00116
1041.0	0.00118
1041.2	0.0012
1041.4	0.00122
1041.6	0.00125
1041.8	0.00127
1042.0	0.0013
1042.2	0.00133
1042.4	0.00136
1042.6	0.0014
1042.8	0.00143
1043.0	0.00146
1043.2	0.00149
1043.4	0.00153
1043.6	0.00157
1043.8	0.00161
1044.0	0.00165
1044.2	0.00169
1044.4	0.00174
1044.6	0.00179
1044.8	0.00184
1045.0	0.0019
1045.2	0.00195
1045.4	0.00201
1045.6	0.00206
1045.8	0.00213
1046.0	0.0022
1046.2	0.00227
1046.4	0.00234
1046.6	0.00242
1046.8	0.0025
1047.0	0.00258
1047.2	0.00267
1047.4	0.00275
1047.6	0.00284
1047.8	0.00293
1048.0	0.00303
1048.2	0.00312
1048.4	0.00323
1048.6	0.00334
1048.8	0.00346
1049.0	0.00358
1049.2	0.0037
1049.4	0.00383
1049.6	0.00396
1049.8	0.00408
1050.0	0.00422
1050.2	0.00436
1050.4	0.00449
1050.6	0.00464
1050.8	0.00478
1051.0	0.00494
1051.2	0.00509
1051.4	0.00525
1051.6	0.00541
1051.8	0.00557
1052.0	0.00574
1052.2	0.00587
1052.4	0.00601
1052.6	0.00616
1052.8	0.0063
1053.0	0.00645
1053.2	0.00659
1053.4	0.00674
1053.6	0.00689
1053.8	0.00703
1054.0	0.00716
1054.2	0.00728
1054.4	0.00741
1054.6	0.00754
1054.8	0.00764
1055.0	0.00773
1055.2	0.00781
1055.4	0.0079
1055.6	0.00799
1055.8	0.00806
1056.0	0.00813
1056.2	0.0082
1056.4	0.00828
1056.6	0.00832
1056.8	0.00836
1057.0	0.0084
1057.2	0.00843
1057.4	0.00846
1057.6	0.00847
1057.8	0.00847
1058.0	0.00848
1058.2	0.00849
1058.4	0.00848
1058.6	0.00846
1058.8	0.00845
1059.0	0.00844
1059.2	0.00843
1059.4	0.00841
1059.6	0.00839
1059.8	0.00837
1060.0	0.00835
1060.2	0.00833
1060.4	0.00831
1060.6	0.00828
1060.8	0.00826
1061.0	0.00824
1061.2	0.00822
1061.4	0.00819
1061.6	0.00817
1061.8	0.00815
1062.0	0.00812
1062.2	0.0081
1062.4	0.00807
1062.6	0.00805
1062.8	0.00803
1063.0	0.00802
1063.2	0.008
1063.4	0.00799
1063.6	0.00798
1063.8	0.00796
1064.0	0.00794
1064.2	0.00793
1064.4	0.00791
1064.6	0.00788
1064.8	0.00785
1065.0	0.00782
1065.2	0.00779
1065.4	0.00776
1065.6	0.00774
1065.8	0.00772
1066.0	0.00769
1066.2	0.00765
1066.4	0.00767
1066.6	0.00768
1066.8	0.00767
1067.0	0.00769
1067.2	0.00771
1067.4	0.00768
1067.6	0.00767
1067.8	0.00767
1068.0	0.00767
1068.2	0.00768
1068.4	0.00769
1068.6	0.00771
1068.8	0.00773
1069.0	0.00773
1069.2	0.00773
1069.4	0.00773
1069.6	0.00777
1069.8	0.00782
1070.0	0.00777
1070.2	0.00776
1070.4	0.0078
1070.6	0.00777
1070.8	0.00774
1071.0	0.00775
1071.2	0.00778
1071.4	0.00782
1071.6	0.0078
1071.8	0.0078
1072.0	0.0078
1072.2	0.00783
1072.4	0.00786
1072.6	0.00785
1072.8	0.00783
1073.0	0.00782
1073.2	0.00779
1073.4	0.00777
1073.6	0.00779
1073.8	0.00776
1074.0	0.00773
1074.2	0.00772
1074.4	0.00772
1074.6	0.0077
1074.8	0.00769
1075.0	0.0077
1075.2	0.00782
1075.4	0.00794
1075.6	0.00806
1075.8	0.00804
1076.0	0.008
1076.2	0.00797
1076.4	0.00794
1076.6	0.00791
1076.8	0.00788
1077.0	0.00784
1077.2	0.00781
1077.4	0.00777
1077.6	0.00772
1077.8	0.00767
1078.0	0.00762
1078.2	0.00757
1078.4	0.00752
1078.6	0.00747
1078.8	0.00742
1079.0	0.00737
1079.2	0.00731
1079.4	0.00725
1079.6	0.00719
1079.8	0.00713
1080.0	0.00707
1080.2	0.00701
1080.4	0.00696
1080.6	0.0069
1080.8	0.00683
1081.0	0.00676
1081.2	0.00669
1081.4	0.00662
1081.6	0.00655
1081.8	0.00649
1082.0	0.00642
1082.2	0.00635
1082.4	0.00628
1082.6	0.0062
1082.8	0.00612
1083.0	0.00603
1083.2	0.00595
1083.4	0.00587
1083.6	0.00579
1083.8	0.00571
1084.0	0.00564
1084.2	0.00556
1084.4	0.00549
1084.6	0.00542
1084.8	0.00534
1085.0	0.00527
1085.2	0.00521
1085.4	0.00514
1085.6	0.00507
1085.8	0.005
1086.0	0.00494
1086.2	0.00487
1086.4	0.00481
1086.6	0.00474
1086.8	0.00468
1087.0	0.00461
1087.2	0.00455
1087.4	0.00449
1087.6	0.00443
1087.8	0.00437
1088.0	0.00431
1088.2	0.00425
1088.4	0.00419
1088.6	0.00414
1088.8	0.00408
1089.0	0.00403
1089.2	0.00397
1089.4	0.00392
1089.6	0.00387
1089.8	0.00382
1090.0	0.00378
1090.2	0.00374
1090.4	0.00369
1090.6	0.00365
1090.8	0.00361
1091.0	0.00357
1091.2	0.00353
1091.4	0.00349
1091.6	0.00344
1091.8	0.00341
1092.0	0.00337
1092.2	0.00333
1092.4	0.00329
1092.6	0.00325
1092.8	0.00321
1093.0	0.00318
1093.2	0.00315
1093.4	0.00312
1093.6	0.0031
1093.8	0.00307
1094.0	0.00304
1094.2	0.00302
1094.4	0.00299
1094.6	0.00296
1094.8	0.00294
1095.0	0.00291
1095.2	0.00289
1095.4	0.00286
1095.6	0.00284
1095.8	0.00281
1096.0	0.0028
1096.2	0.0028
1096.4	0.00279
1096.6	0.00279
1096.8	0.00278
1097.0	0.00278
1097.2	0.00277
1097.4	0.00277
1097.6	0.00276
1097.8	0.00276
1098.0	0.00275
1098.2	0.00275
1098.4	0.00274
1098.6	0.00274
1098.8	0.00273
1099.0	0.00273
1099.2	0.00272
1099.4	0.00272
1099.6	0.00273
1099.8	0.00273
1100.0	0.00273
1100.2	0.00274
1100.4	0.00274
1100.6	0.00274
1100.8	0.00275
1101.0	0.00275
1101.2	0.00275
1101.4	0.00276
1101.6	0.00276
1101.8	0.00276
1102.0	0.00277
1102.2	0.00277
1102.4	0.00279
1102.6	0.00282
1102.8	0.00284
1103.0	0.00286
1103.2	0.00289
1103.4	0.00291
1103.6	0.00294
1103.8	0.00296
1104.0	0.00299
1104.2	0.00301
1104.4	0.00304
1104.6	0.00306
1104.8	0.00309
1105.0	0.00312
1105.2	0.00315
1105.4	0.0032
1105.6	0.00325
1105.8	0.0033
1106.0	0.00335
1106.2	0.0034
1106.4	0.00345
1106.6	0.00351
1106.8	0.00356
1107.0	0.00362
1107.2	0.00367
1107.4	0.00373
1107.6	0.00379
1107.8	0.00385
1108.0	0.00391
1108.2	0.00397
1108.4	0.00403
1108.6	0.00409
1108.8	0.00416
1109.0	0.00422
